PE UV       SUBTECH     SPECTRUM    ASCII       PEDS        4.00        
   -1
branco.Sample.asc
22/01/27
14:59:54.00
22/01/27
14:59:54.00
Administrator

200,000000
1
Lambda 1050
1050L1808311
PerkinElmer UV WinLab 6.4.0.973 / 2.02.11 Lambda 900 UV/VIS/NIR, May 23 2018 11:23:04

0
0
3350/servo 1800,8/servo 860,8/2
0
0
UV/VIS
1
1
1
CommonBeamDepol,RBeamAtt,SBeamAtt,uv/vis/nir detector, TDS WB InGaAs Detector
0
0
0
0
Program
Program
3350/servo 1800,8/servo 860,8/2
3350/0,2 1800,8/0,2 860,8/0,2
3350/0,2 1800,8/0,2 860,8/0,2
0
3350/1,00 1800,8/1,00
 
 
 
0
 
860,8
319,2
1800,8 860,8
Front
100
on
S:100 R:100
 
0
0
0
 
0
 
 
 
0
 
 
0
0
0
0
0
 
 
 
 
0
0


0
0
#HDR
-1
-1
#GR
nm
%T
1.0
0.0
2000,000000
-1,000000
1801
8
100,229399
99,811608
#DATA
2000,000000	100,001459
1999,000000	100,014925
1998,000000	100,006734
1997,000000	100,049843
1996,000000	100,018298
1995,000000	100,022680
1994,000000	100,025267
1993,000000	100,046732
1992,000000	100,041465
1991,000000	100,054846
1990,000000	100,054397
1989,000000	100,025060
1988,000000	100,010001
1987,000000	100,020569
1986,000000	100,022596
1985,000000	100,015516
1984,000000	100,026768
1983,000000	100,025760
1982,000000	100,042760
1981,000000	100,008665
1980,000000	100,027801
1979,000000	100,021163
1978,000000	100,034677
1977,000000	100,058341
1976,000000	100,016559
1975,000000	100,017573
1974,000000	100,012732
1973,000000	100,005973
1972,000000	100,036633
1971,000000	100,033598
1970,000000	100,023226
1969,000000	100,017588
1968,000000	100,010148
1967,000000	100,016916
1966,000000	100,025153
1965,000000	100,027526
1964,000000	100,066364
1963,000000	100,034649
1962,000000	100,012302
1961,000000	100,029125
1960,000000	100,033537
1959,000000	100,027099
1958,000000	100,027325
1957,000000	100,039635
1956,000000	100,047895
1955,000000	100,059767
1954,000000	100,038978
1953,000000	100,045181
1952,000000	100,046763
1951,000000	100,038744
1950,000000	100,047340
1949,000000	100,055596
1948,000000	100,007455
1947,000000	100,025193
1946,000000	100,008472
1945,000000	100,034557
1944,000000	100,057589
1943,000000	100,058710
1942,000000	100,025851
1941,000000	99,964899
1940,000000	99,958494
1939,000000	99,966974
1938,000000	99,962697
1937,000000	99,962478
1936,000000	99,969117
1935,000000	99,980156
1934,000000	99,986470
1933,000000	99,986355
1932,000000	99,970349
1931,000000	99,967082
1930,000000	99,963141
1929,000000	99,989187
1928,000000	99,987062
1927,000000	100,000112
1926,000000	99,999888
1925,000000	99,999101
1924,000000	99,996852
1923,000000	99,980634
1922,000000	99,957441
1921,000000	99,957503
1920,000000	99,945544
1919,000000	99,972288
1918,000000	100,023003
1917,000000	100,032938
1916,000000	100,015420
1915,000000	100,009220
1914,000000	100,013813
1913,000000	100,003703
1912,000000	99,999215
1911,000000	99,997760
1910,000000	99,998654
1909,000000	100,003934
1908,000000	100,013733
1907,000000	99,994374
1906,000000	100,006288
1905,000000	99,997870
1904,000000	99,985999
1903,000000	99,988558
1902,000000	99,988301
1901,000000	100,001350
1900,000000	100,007975
1899,000000	99,988003
1898,000000	99,993058
1897,000000	100,010533
1896,000000	100,002583
1895,000000	100,019673
1894,000000	100,023498
1893,000000	100,021240
1892,000000	100,022361
1891,000000	99,991471
1890,000000	99,987669
1889,000000	100,000449
1888,000000	100,010434
1887,000000	99,985743
1886,000000	99,986971
1885,000000	99,984067
1884,000000	99,979362
1883,000000	99,996858
1882,000000	100,008304
1881,000000	100,008868
1880,000000	100,002807
1879,000000	100,004043
1878,000000	99,997753
1877,000000	99,976408
1876,000000	99,982473
1875,000000	100,016748
1874,000000	100,017872
1873,000000	99,987861
1872,000000	99,986198
1871,000000	100,003697
1870,000000	100,001009
1869,000000	100,004704
1868,000000	100,017572
1867,000000	100,019596
1866,000000	100,019164
1865,000000	100,021091
1864,000000	100,020197
1863,000000	100,023221
1862,000000	100,024605
1861,000000	100,011806
1860,000000	100,003594
1859,000000	100,004490
1858,000000	100,001683
1857,000000	99,999775
1856,000000	99,998539
1855,000000	100,013370
1854,000000	100,017966
1853,000000	100,006509
1852,000000	99,998878
1851,000000	100,007076
1850,000000	100,033079
1849,000000	100,026196
1848,000000	100,019180
1847,000000	100,024632
1846,000000	100,013770
1845,000000	100,015492
1844,000000	100,016889
1843,000000	100,007984
1842,000000	99,996186
1841,000000	100,003698
1840,000000	100,030711
1839,000000	100,035608
1838,000000	100,042164
1837,000000	100,031113
1836,000000	99,986215
1835,000000	99,988353
1834,000000	100,027586
1833,000000	100,049848
1832,000000	100,026157
1831,000000	99,998318
1830,000000	100,008973
1829,000000	100,002132
1828,000000	99,995282
1827,000000	100,016397
1826,000000	100,023341
1825,000000	100,029616
1824,000000	100,023129
1823,000000	100,019429
1822,000000	100,013466
1821,000000	99,997535
1820,000000	99,996077
1819,000000	100,011226
1818,000000	100,014055
1817,000000	100,005284
1816,000000	100,000898
1815,000000	100,012114
1814,000000	100,003814
1813,000000	99,995287
1812,000000	99,985082
1811,000000	99,986097
1810,000000	99,988895
1809,000000	99,981603
1808,000000	99,974652
1807,000000	99,969838
1806,000000	99,993496
1805,000000	100,021650
1804,000000	100,025360
1803,000000	100,001234
1802,000000	99,984188
1801,000000	99,958866
1800,000000	99,996813
1799,000000	99,983147
1798,000000	99,994074
1797,000000	100,008667
1796,000000	100,010843
1795,000000	100,019876
1794,000000	100,016461
1793,000000	100,008351
1792,000000	100,006182
1791,000000	100,001833
1790,000000	99,999083
1789,000000	100,002869
1788,000000	100,009757
1787,000000	100,018255
1786,000000	100,015961
1785,000000	100,007462
1784,000000	100,004591
1783,000000	100,001950
1782,000000	100,002293
1781,000000	99,999312
1780,000000	99,997824
1779,000000	100,007211
1778,000000	100,013841
1777,000000	100,012346
1776,000000	100,014966
1775,000000	100,022608
1774,000000	100,022480
1773,000000	100,017904
1772,000000	100,019605
1771,000000	100,017545
1770,000000	100,023915
1769,000000	100,019011
1768,000000	100,016731
1767,000000	100,001024
1766,000000	99,993742
1765,000000	99,991012
1764,000000	100,004437
1763,000000	100,017863
1762,000000	100,034932
1761,000000	100,045628
1760,000000	100,036295
1759,000000	100,030493
1758,000000	100,026283
1757,000000	100,020480
1756,000000	100,019570
1755,000000	100,033681
1754,000000	100,041420
1753,000000	100,035047
1752,000000	100,023437
1751,000000	100,014449
1750,000000	100,022758
1749,000000	100,038465
1748,000000	100,038919
1747,000000	100,015816
1746,000000	100,003186
1745,000000	100,008306
1744,000000	100,014906
1743,000000	100,019800
1742,000000	100,019460
1741,000000	100,019917
1740,000000	100,021854
1739,000000	100,034381
1738,000000	100,038257
1737,000000	100,036094
1736,000000	100,039285
1735,000000	100,039628
1734,000000	100,021635
1733,000000	100,000569
1732,000000	100,001139
1731,000000	100,000228
1730,000000	100,006833
1729,000000	100,012074
1728,000000	100,023468
1727,000000	100,037145
1726,000000	100,038973
1725,000000	100,030544
1724,000000	100,025531
1723,000000	100,014248
1722,000000	100,023825
1721,000000	100,032377
1720,000000	100,020750
1719,000000	100,017331
1718,000000	100,018245
1717,000000	100,026572
1716,000000	100,032050
1715,000000	100,028858
1714,000000	100,023269
1713,000000	100,013345
1712,000000	100,007185
1711,000000	100,003422
1710,000000	100,009809
1709,000000	100,019961
1708,000000	100,017336
1707,000000	100,015965
1706,000000	100,019043
1705,000000	100,019499
1704,000000	100,019384
1703,000000	100,026338
1702,000000	100,030212
1701,000000	100,025535
1700,000000	100,028157
1699,000000	100,026901
1698,000000	100,025872
1697,000000	100,030316
1696,000000	100,028945
1695,000000	100,017660
1694,000000	99,997494
1693,000000	99,991343
1692,000000	99,990888
1691,000000	99,988724
1690,000000	99,990661
1689,000000	99,998406
1688,000000	100,015147
1687,000000	100,024714
1686,000000	100,027448
1685,000000	100,025966
1684,000000	100,023116
1683,000000	100,019129
1682,000000	100,011841
1681,000000	100,012409
1680,000000	100,008424
1679,000000	99,998293
1678,000000	99,995561
1677,000000	100,000228
1676,000000	100,000000
1675,000000	99,993741
1674,000000	99,985322
1673,000000	99,984071
1672,000000	99,987257
1671,000000	99,995107
1670,000000	100,014603
1669,000000	100,023344
1668,000000	100,012929
1667,000000	100,004576
1666,000000	99,998170
1665,000000	99,997140
1664,000000	100,004575
1663,000000	100,008464
1662,000000	100,011208
1661,000000	100,017725
1660,000000	100,014179
1659,000000	100,008003
1658,000000	100,012920
1657,000000	100,017835
1656,000000	100,015662
1655,000000	100,014860
1654,000000	100,014516
1653,000000	100,007315
1652,000000	100,007772
1651,000000	100,007543
1650,000000	100,003771
1649,000000	100,000343
1648,000000	100,000343
1647,000000	100,012114
1646,000000	100,016115
1645,000000	100,012687
1644,000000	100,009030
1643,000000	100,001943
1642,000000	100,005258
1641,000000	100,018520
1640,000000	100,028696
1639,000000	100,029956
1638,000000	100,032931
1637,000000	100,027101
1636,000000	100,018413
1635,000000	100,028826
1634,000000	100,041874
1633,000000	100,034211
1632,000000	100,024944
1631,000000	100,025176
1630,000000	100,034797
1629,000000	100,044650
1628,000000	100,047062
1627,000000	100,042829
1626,000000	100,031724
1625,000000	100,025426
1624,000000	100,018670
1623,000000	100,010996
1622,000000	100,013173
1621,000000	100,015351
1620,000000	100,016612
1619,000000	100,022111
1618,000000	100,024515
1617,000000	100,021762
1616,000000	100,014202
1615,000000	100,011110
1614,000000	100,004925
1613,000000	99,998053
1612,000000	99,995992
1611,000000	99,993015
1610,000000	99,993588
1609,000000	100,000801
1608,000000	100,013854
1607,000000	100,018891
1606,000000	100,021409
1605,000000	100,020950
1604,000000	100,012020
1603,000000	100,009272
1602,000000	100,016025
1601,000000	100,021404
1600,000000	100,029303
1599,000000	100,030448
1598,000000	100,038002
1597,000000	100,036508
1596,000000	100,026890
1595,000000	100,023797
1594,000000	100,038439
1593,000000	100,044383
1592,000000	100,034083
1591,000000	100,030877
1590,000000	100,030874
1589,000000	100,031558
1588,000000	100,031554
1587,000000	100,025492
1586,000000	100,021031
1585,000000	100,015657
1584,000000	100,018286
1583,000000	100,029372
1582,000000	100,036573
1581,000000	100,031655
1580,000000	100,016569
1579,000000	100,010969
1578,000000	100,013255
1577,000000	100,011770
1576,000000	100,004800
1575,000000	100,001943
1574,000000	100,005943
1573,000000	100,013257
1572,000000	100,022173
1571,000000	100,023204
1570,000000	100,026752
1569,000000	100,028697
1568,000000	100,020237
1567,000000	100,009946
1566,000000	100,005602
1565,000000	100,017493
1564,000000	100,016237
1563,000000	100,003660
1562,000000	100,001487
1561,000000	100,002860
1560,000000	100,006637
1559,000000	100,008012
1558,000000	100,010073
1557,000000	100,015341
1556,000000	100,005839
1555,000000	99,997939
1554,000000	99,997595
1553,000000	99,990952
1552,000000	99,989920
1551,000000	99,995074
1550,000000	100,006760
1549,000000	100,013866
1548,000000	100,017649
1547,000000	100,009399
1546,000000	100,002063
1545,000000	100,013756
1544,000000	100,008368
1543,000000	100,004241
1542,000000	100,003554
1541,000000	100,006764
1540,000000	100,004013
1539,000000	99,987504
1538,000000	99,983492
1537,000000	99,992663
1536,000000	99,991288
1535,000000	100,005846
1534,000000	100,019601
1533,000000	100,014555
1532,000000	100,009053
1531,000000	100,011115
1530,000000	100,004698
1529,000000	100,007447
1528,000000	100,007332
1527,000000	100,004009
1526,000000	100,005726
1525,000000	100,014085
1524,000000	100,006755
1523,000000	100,000000
1522,000000	100,009158
1521,000000	100,010759
1520,000000	100,022663
1519,000000	100,021516
1518,000000	100,019569
1517,000000	100,009382
1516,000000	100,014988
1515,000000	100,017504
1514,000000	100,011211
1513,000000	100,009037
1512,000000	100,009494
1511,000000	100,010295
1510,000000	100,015557
1509,000000	100,019673
1508,000000	100,014411
1507,000000	100,009608
1506,000000	100,011095
1505,000000	100,009495
1504,000000	100,015676
1503,000000	100,023346
1502,000000	100,025294
1501,000000	100,025755
1500,000000	100,024728
1499,000000	100,030113
1498,000000	100,025652
1497,000000	100,021992
1496,000000	100,024289
1495,000000	100,026242
1494,000000	100,025445
1493,000000	100,027167
1492,000000	100,029349
1491,000000	100,020295
1490,000000	100,029017
1489,000000	100,036480
1488,000000	100,049683
1487,000000	100,058533
1486,000000	100,062333
1485,000000	100,053617
1484,000000	100,040646
1483,000000	100,035136
1482,000000	100,030773
1481,000000	100,028017
1480,000000	100,025948
1479,000000	100,024338
1478,000000	100,026743
1477,000000	100,016982
1476,000000	100,019389
1475,000000	100,017779
1474,000000	100,014334
1473,000000	100,005618
1472,000000	100,007336
1471,000000	100,003552
1470,000000	100,000573
1469,000000	100,008590
1468,000000	100,010765
1467,000000	100,011567
1466,000000	100,021186
1465,000000	100,026225
1464,000000	100,022905
1463,000000	100,015461
1462,000000	100,015119
1461,000000	100,015122
1460,000000	100,026127
1459,000000	100,034500
1458,000000	100,045746
1457,000000	100,048856
1456,000000	100,053924
1455,000000	100,032482
1454,000000	100,017229
1453,000000	100,025069
1452,000000	100,023346
1451,000000	100,032204
1450,000000	100,044170
1449,000000	100,052921
1448,000000	100,059142
1447,000000	100,050053
1446,000000	100,036244
1445,000000	100,042115
1444,000000	100,036364
1443,000000	100,030266
1442,000000	100,027161
1441,000000	100,031655
1440,000000	100,028091
1439,000000	100,027635
1438,000000	100,030752
1437,000000	100,031799
1436,000000	100,025123
1435,000000	100,022940
1434,000000	100,016143
1433,000000	100,004498
1432,000000	100,008423
1431,000000	100,014082
1430,000000	100,016743
1429,000000	100,017674
1428,000000	100,022304
1427,000000	100,020001
1426,000000	100,012722
1425,000000	100,001504
1424,000000	99,995602
1423,000000	99,998379
1422,000000	100,002315
1421,000000	100,010070
1420,000000	100,017019
1419,000000	100,021190
1418,000000	100,015867
1417,000000	100,013437
1416,000000	100,010194
1415,000000	100,005792
1414,000000	100,009384
1413,000000	100,012281
1412,000000	100,014596
1411,000000	100,022589
1410,000000	100,029768
1409,000000	100,029642
1408,000000	100,023144
1407,000000	100,012373
1406,000000	100,004160
1405,000000	99,998499
1404,000000	99,998038
1403,000000	99,995848
1402,000000	99,994006
1401,000000	99,998848
1400,000000	100,011063
1399,000000	100,018208
1398,000000	100,020400
1397,000000	100,020634
1396,000000	100,018099
1395,000000	100,021671
1394,000000	100,025816
1393,000000	100,021777
1392,000000	100,010827
1391,000000	100,015545
1390,000000	100,014849
1389,000000	100,004717
1388,000000	100,012766
1387,000000	100,025867
1386,000000	100,022178
1385,000000	100,017802
1384,000000	100,011364
1383,000000	100,014456
1382,000000	100,011351
1381,000000	99,997250
1380,000000	99,989458
1379,000000	99,986704
1378,000000	99,984863
1377,000000	99,985081
1376,000000	99,995980
1375,000000	100,013107
1374,000000	100,022902
1373,000000	100,032716
1372,000000	100,038622
1371,000000	100,030105
1370,000000	100,020995
1369,000000	100,020416
1368,000000	100,016602
1367,000000	100,009100
1366,000000	100,007709
1365,000000	100,015624
1364,000000	100,022701
1363,000000	100,021961
1362,000000	100,018939
1361,000000	100,021735
1360,000000	100,028833
1359,000000	100,025598
1358,000000	100,023517
1357,000000	100,027886
1356,000000	100,028308
1355,000000	100,026371
1354,000000	100,032220
1353,000000	100,040557
1352,000000	100,037638
1351,000000	100,027399
1350,000000	100,014557
1349,000000	100,037976
1348,000000	100,095804
1347,000000	100,064121
1346,000000	99,930344
1345,000000	99,940274
1344,000000	100,013607
1343,000000	100,010748
1342,000000	100,014697
1341,000000	100,012746
1340,000000	100,111818
1339,000000	100,110404
1338,000000	99,933508
1337,000000	99,950187
1336,000000	100,036338
1335,000000	100,038117
1334,000000	100,039663
1333,000000	100,041207
1332,000000	100,041813
1331,000000	100,035854
1330,000000	100,030004
1329,000000	100,033063
1328,000000	100,033777
1327,000000	100,035077
1326,000000	100,038372
1325,000000	100,038498
1324,000000	100,039325
1323,000000	100,036628
1322,000000	100,033110
1321,000000	100,030060
1320,000000	100,030267
1319,000000	100,031186
1318,000000	100,029660
1317,000000	100,026022
1316,000000	100,135246
1315,000000	100,108867
1314,000000	100,050644
1313,000000	100,059518
1312,000000	100,066167
1311,000000	100,068720
1310,000000	100,058646
1309,000000	100,044561
1308,000000	100,034494
1307,000000	100,035880
1306,000000	100,039125
1305,000000	100,032007
1304,000000	100,025363
1303,000000	100,016631
1302,000000	100,013603
1301,000000	100,018367
1300,000000	100,024524
1299,000000	100,028123
1298,000000	100,030443
1297,000000	100,029859
1296,000000	100,028348
1295,000000	100,027069
1294,000000	100,025938
1293,000000	100,022812
1292,000000	100,022234
1291,000000	100,020026
1290,000000	100,017934
1289,000000	100,015026
1288,000000	100,013283
1287,000000	100,016222
1286,000000	100,015301
1285,000000	100,012736
1284,000000	100,013910
1283,000000	100,018125
1282,000000	100,015674
1281,000000	100,010180
1280,000000	100,016622
1279,000000	100,014636
1278,000000	100,014992
1277,000000	100,011598
1276,000000	100,013123
1275,000000	100,009375
1274,000000	99,998711
1273,000000	99,994609
1272,000000	99,995546
1271,000000	99,995786
1270,000000	100,005617
1269,000000	100,017199
1268,000000	100,025152
1267,000000	100,018130
1266,000000	100,016606
1265,000000	100,009587
1264,000000	100,014474
1263,000000	100,012832
1262,000000	100,005831
1261,000000	100,001865
1260,000000	100,016316
1259,000000	100,025867
1258,000000	100,029823
1257,000000	100,024925
1256,000000	100,033307
1255,000000	100,030858
1254,000000	100,025267
1253,000000	100,037726
1252,000000	100,032371
1251,000000	100,025852
1250,000000	100,034708
1249,000000	100,065119
1248,000000	100,080049
1247,000000	100,083223
1246,000000	100,083833
1245,000000	100,084561
1244,000000	100,036522
1243,000000	99,921671
1242,000000	99,882404
1241,000000	99,909112
1240,000000	99,933268
1239,000000	99,937804
1238,000000	99,811608
1237,000000	99,917529
1236,000000	99,942043
1235,000000	99,953949
1234,000000	99,952653
1233,000000	99,948274
1232,000000	99,944310
1231,000000	99,939410
1230,000000	99,946884
1229,000000	99,965378
1228,000000	99,967255
1227,000000	99,957483
1226,000000	99,953541
1225,000000	99,960479
1224,000000	99,962125
1223,000000	99,950071
1222,000000	99,945340
1221,000000	99,955227
1220,000000	99,961739
1219,000000	99,981133
1218,000000	99,989474
1217,000000	99,981619
1216,000000	99,973309
1215,000000	99,959348
1214,000000	99,959823
1213,000000	99,957755
1212,000000	99,968840
1211,000000	99,963303
1210,000000	99,964226
1209,000000	99,970687
1208,000000	99,966065
1207,000000	99,962478
1206,000000	99,951272
1205,000000	99,934169
1204,000000	99,943032
1203,000000	99,967505
1202,000000	99,971651
1201,000000	99,842919
1200,000000	99,956517
1199,000000	99,960666
1198,000000	99,950429
1197,000000	99,952724
1196,000000	99,946660
1195,000000	99,956632
1194,000000	99,965218
1193,000000	99,959391
1192,000000	99,967410
1191,000000	99,977212
1190,000000	99,975300
1189,000000	99,965488
1188,000000	99,956253
1187,000000	99,945519
1186,000000	99,927516
1185,000000	99,915278
1184,000000	99,950017
1183,000000	99,966290
1182,000000	99,965480
1181,000000	99,961783
1180,000000	99,960165
1179,000000	99,959815
1178,000000	99,959580
1177,000000	99,964545
1176,000000	99,956233
1175,000000	99,943648
1174,000000	99,944339
1173,000000	99,941566
1172,000000	99,947915
1171,000000	99,941561
1170,000000	99,936709
1169,000000	99,940978
1168,000000	99,946631
1167,000000	99,949979
1166,000000	99,953440
1165,000000	99,942582
1164,000000	99,934033
1163,000000	99,937838
1162,000000	99,949615
1161,000000	99,948339
1160,000000	99,947527
1159,000000	99,943713
1158,000000	99,942095
1157,000000	99,945099
1156,000000	99,942213
1155,000000	99,957006
1154,000000	99,958741
1153,000000	99,957241
1152,000000	99,957472
1151,000000	99,946383
1150,000000	99,940030
1149,000000	99,946729
1148,000000	99,952853
1147,000000	99,948116
1146,000000	99,945463
1145,000000	99,938305
1144,000000	99,930915
1143,000000	99,933456
1142,000000	99,935531
1141,000000	99,940376
1140,000000	99,936094
1139,000000	99,932039
1138,000000	99,921982
1137,000000	99,928911
1136,000000	99,925440
1135,000000	99,931457
1134,000000	99,943365
1133,000000	99,946142
1132,000000	99,941759
1131,000000	99,943270
1130,000000	99,940504
1129,000000	99,943632
1128,000000	99,944914
1127,000000	99,943311
1126,000000	99,941939
1125,000000	99,932151
1124,000000	99,934475
1123,000000	99,940371
1122,000000	99,943842
1121,000000	99,955379
1120,000000	99,952617
1119,000000	99,957692
1118,000000	99,966454
1117,000000	99,964034
1116,000000	99,965649
1115,000000	99,960001
1114,000000	99,955390
1113,000000	99,948354
1112,000000	99,948574
1111,000000	99,947295
1110,000000	99,947397
1109,000000	99,946344
1108,000000	99,954523
1107,000000	99,963054
1106,000000	99,961774
1105,000000	99,966385
1104,000000	99,968226
1103,000000	99,963716
1102,000000	99,958975
1101,000000	99,958277
1100,000000	99,957927
1099,000000	99,953303
1098,000000	99,952375
1097,000000	99,958846
1096,000000	99,960922
1095,000000	99,960225
1094,000000	99,958720
1093,000000	99,953400
1092,000000	99,951666
1091,000000	99,955482
1090,000000	99,959530
1089,000000	99,964618
1088,000000	99,967046
1087,000000	99,964966
1086,000000	99,956760
1085,000000	99,949133
1084,000000	99,947864
1083,000000	99,947174
1082,000000	99,935968
1081,000000	99,932272
1080,000000	99,955041
1079,000000	99,969720
1078,000000	99,963598
1077,000000	99,957361
1076,000000	99,963025
1075,000000	99,967764
1074,000000	99,965575
1073,000000	99,962809
1072,000000	99,958075
1071,000000	99,951266
1070,000000	99,943535
1069,000000	99,956697
1068,000000	99,968473
1067,000000	99,973668
1066,000000	99,975746
1065,000000	99,974013
1064,000000	99,965931
1063,000000	99,960274
1062,000000	99,960043
1061,000000	99,959464
1060,000000	99,958653
1059,000000	99,958302
1058,000000	99,964997
1057,000000	99,975737
1056,000000	99,973310
1055,000000	99,962220
1054,000000	99,957367
1053,000000	99,968454
1052,000000	99,978621
1051,000000	99,969492
1050,000000	99,955976
1049,000000	99,948235
1048,000000	99,947538
1047,000000	99,952272
1046,000000	99,955045
1045,000000	99,959667
1044,000000	99,961283
1043,000000	99,965096
1042,000000	99,962553
1041,000000	99,954117
1040,000000	99,952267
1039,000000	99,953305
1038,000000	99,952724
1037,000000	99,949950
1036,000000	99,950527
1035,000000	99,952027
1034,000000	99,949946
1033,000000	99,947055
1032,000000	99,950404
1031,000000	99,946126
1030,000000	99,938613
1029,000000	99,931212
1028,000000	99,927165
1027,000000	99,925086
1026,000000	99,925435
1025,000000	99,933293
1024,000000	99,937222
1023,000000	99,928088
1022,000000	99,920456
1021,000000	99,919180
1020,000000	99,916400
1019,000000	99,924024
1018,000000	99,939050
1017,000000	99,939160
1016,000000	99,931293
1015,000000	99,921695
1014,000000	99,922387
1013,000000	99,929091
1012,000000	99,928507
1011,000000	99,927346
1010,000000	99,927923
1009,000000	99,925840
1008,000000	99,923292
1007,000000	99,923982
1006,000000	99,924094
1005,000000	99,917960
1004,000000	99,924666
1003,000000	99,929175
1002,000000	99,931252
1001,000000	99,936796
1000,000000	99,930659
999,000000	99,932278
998,000000	99,929610
997,000000	99,926825
996,000000	99,931451
995,000000	99,937698
994,000000	99,937695
993,000000	99,938617
992,000000	99,939190
991,000000	99,935249
990,000000	99,941150
989,000000	99,947861
988,000000	99,950172
987,000000	99,953991
986,000000	99,950510
985,000000	99,950159
984,000000	99,949229
983,000000	99,951544
982,000000	99,949339
981,000000	99,950147
980,000000	99,955475
979,000000	99,960340
978,000000	99,951523
977,000000	99,950475
976,000000	99,946758
975,000000	99,943737
974,000000	99,950343
973,000000	99,955094
972,000000	99,964605
971,000000	99,969823
970,000000	99,961810
969,000000	99,953911
968,000000	99,953557
967,000000	99,934974
966,000000	99,924744
965,000000	99,926820
964,000000	99,931804
963,000000	99,944461
962,000000	99,946312
961,000000	99,943052
960,000000	99,956062
959,000000	99,970237
958,000000	99,984882
957,000000	99,983135
956,000000	99,982203
955,000000	99,988949
954,000000	99,988367
953,000000	99,976387
952,000000	99,963591
951,000000	99,964515
950,000000	99,966608
949,000000	99,957762
948,000000	99,958689
947,000000	99,948448
946,000000	99,937511
945,000000	99,941348
944,000000	99,943094
943,000000	99,943789
942,000000	99,947046
941,000000	99,944020
940,000000	99,939831
939,000000	99,941224
938,000000	99,943319
937,000000	99,948088
936,000000	99,942038
935,000000	99,930990
934,000000	99,952865
933,000000	99,966595
932,000000	99,968805
931,000000	99,968105
930,000000	99,973575
929,000000	99,964608
928,000000	99,963090
927,000000	99,966809
926,000000	99,960049
925,000000	99,961440
924,000000	99,966558
923,000000	99,961541
922,000000	99,954193
921,000000	99,966654
920,000000	99,971192
919,000000	99,973401
918,000000	99,975264
917,000000	99,974093
916,000000	99,969654
915,000000	99,960431
914,000000	99,954010
913,000000	99,961710
912,000000	99,975482
911,000000	99,974197
910,000000	99,960889
909,000000	99,955984
908,000000	99,950614
907,000000	99,953414
906,000000	99,967540
905,000000	99,957732
904,000000	99,961587
903,000000	99,956568
902,000000	99,948628
901,000000	99,953532
900,000000	99,939064
899,000000	99,928328
898,000000	99,938954
897,000000	99,945725
896,000000	99,944210
895,000000	99,946083
894,000000	99,935359
893,000000	99,926847
892,000000	99,922892
891,000000	99,923953
890,000000	99,933993
889,000000	99,941576
888,000000	99,940536
887,000000	99,938798
886,000000	99,939627
885,000000	99,944648
884,000000	99,939418
883,000000	99,931632
882,000000	99,929671
881,000000	99,927128
880,000000	99,930641
879,000000	99,928103
878,000000	99,931381
877,000000	99,933262
876,000000	99,937349
875,000000	99,942012
874,000000	99,938783
873,000000	99,938804
872,000000	99,932565
871,000000	99,923438
870,000000	99,942485
869,000000	99,954213
868,000000	99,952264
867,000000	99,951472
866,000000	99,942470
865,000000	99,926535
864,000000	99,930384
863,000000	99,905934
862,000000	99,908871
861,000000	99,908572
860,000000	100,187413
859,000000	100,049471
858,000000	100,175452
857,000000	100,121980
856,000000	100,158282
855,000000	100,141495
854,000000	100,133065
853,000000	100,215975
852,000000	100,181977
851,000000	100,198498
850,000000	100,229399
849,000000	100,202926
848,000000	100,190630
847,000000	100,191131
846,000000	100,169040
845,000000	100,198997
844,000000	100,175011
843,000000	100,134461
842,000000	100,143296
841,000000	100,153443
840,000000	100,166466
839,000000	100,105558
838,000000	100,142331
837,000000	100,130196
836,000000	100,153167
835,000000	100,157019
834,000000	100,186766
833,000000	100,146884
832,000000	100,161384
831,000000	100,163539
830,000000	100,165854
829,000000	100,137168
828,000000	100,172477
827,000000	100,152333
826,000000	100,140394
825,000000	100,097836
824,000000	100,113620
823,000000	100,133236
822,000000	100,141301
821,000000	100,178177
820,000000	100,130219
819,000000	100,115602
818,000000	100,108834
817,000000	100,110266
816,000000	100,115218
815,000000	100,107104
814,000000	100,077268
813,000000	100,079805
812,000000	100,127729
811,000000	100,097132
810,000000	100,119195
809,000000	100,117050
808,000000	100,143383
807,000000	100,132285
806,000000	100,134111
805,000000	100,115551
804,000000	100,117293
803,000000	100,108759
802,000000	100,108958
801,000000	100,108029
800,000000	100,110922
799,000000	100,089823
798,000000	100,116477
797,000000	100,119846
796,000000	100,111927
795,000000	100,124601
794,000000	100,138102
793,000000	100,127392
792,000000	100,129253
791,000000	100,102466
790,000000	100,145546
789,000000	100,167093
788,000000	100,123318
787,000000	100,112378
786,000000	100,103521
785,000000	100,116223
784,000000	100,121009
783,000000	100,105050
782,000000	100,120421
781,000000	100,127180
780,000000	100,109372
779,000000	100,099591
778,000000	100,118568
777,000000	100,137551
776,000000	100,127075
775,000000	100,127786
774,000000	100,139215
773,000000	100,118135
772,000000	100,115355
771,000000	100,123040
770,000000	100,141211
769,000000	100,127021
768,000000	100,108293
767,000000	100,126602
766,000000	100,120787
765,000000	100,102029
764,000000	100,124284
763,000000	100,110287
762,000000	100,105768
761,000000	100,109057
760,000000	100,114531
759,000000	100,103926
758,000000	100,105467
757,000000	100,136043
756,000000	100,124860
755,000000	100,114023
754,000000	100,121846
753,000000	100,132688
752,000000	100,110312
751,000000	100,103561
750,000000	100,118736
749,000000	100,122362
748,000000	100,134293
747,000000	100,132777
746,000000	100,132308
745,000000	100,142366
744,000000	100,148812
743,000000	100,143572
742,000000	100,112159
741,000000	100,110419
740,000000	100,117674
739,000000	100,114072
738,000000	100,119467
737,000000	100,122399
736,000000	100,123589
735,000000	100,112863
734,000000	100,107377
733,000000	100,118737
732,000000	100,118996
731,000000	100,111766
730,000000	100,113068
729,000000	100,112376
728,000000	100,096709
727,000000	100,094375
726,000000	100,082569
725,000000	100,082691
724,000000	100,100016
723,000000	100,093595
722,000000	100,103220
721,000000	100,115307
720,000000	100,099625
719,000000	100,091202
718,000000	100,109954
717,000000	100,102118
716,000000	100,075307
715,000000	100,062784
714,000000	100,055406
713,000000	100,050017
712,000000	100,066663
711,000000	100,079915
710,000000	100,074881
709,000000	100,089545
708,000000	100,085333
707,000000	100,083462
706,000000	100,097427
705,000000	100,083011
704,000000	100,089596
703,000000	100,093376
702,000000	100,080133
701,000000	100,092822
700,000000	100,095174
699,000000	100,082612
698,000000	100,092484
697,000000	100,106357
696,000000	100,113649
695,000000	100,105092
694,000000	100,098405
693,000000	100,085142
692,000000	100,071416
691,000000	100,074125
690,000000	100,087089
689,000000	100,086646
688,000000	100,077702
687,000000	100,069818
686,000000	100,063118
685,000000	100,063002
684,000000	100,071939
683,000000	100,076992
682,000000	100,088282
681,000000	100,095346
680,000000	100,093942
679,000000	100,084180
678,000000	100,084547
677,000000	100,084446
676,000000	100,081992
675,000000	100,092361
674,000000	100,109089
673,000000	100,115327
672,000000	100,099657
671,000000	100,109551
670,000000	100,118264
669,000000	100,113911
668,000000	100,111676
667,000000	100,100611
666,000000	100,101906
665,000000	100,091778
664,000000	100,079538
663,000000	100,075189
662,000000	100,072480
661,000000	100,083420
660,000000	100,085896
659,000000	100,082126
658,000000	100,069183
657,000000	100,080719
656,000000	100,094945
655,000000	100,078703
654,000000	100,088827
653,000000	100,085896
652,000000	100,079670
651,000000	100,074257
650,000000	100,074728
649,000000	100,088723
648,000000	100,093773
647,000000	100,100230
646,000000	100,102452
645,000000	100,100442
644,000000	100,088207
643,000000	100,096080
642,000000	100,092895
641,000000	100,077843
640,000000	100,085955
639,000000	100,102172
638,000000	100,083810
637,000000	100,079807
636,000000	100,093562
635,000000	100,089438
634,000000	100,076385
633,000000	100,062748
632,000000	100,072385
631,000000	100,071555
630,000000	100,057680
629,000000	100,055447
628,000000	100,072593
627,000000	100,075279
626,000000	100,077620
625,000000	100,073265
624,000000	100,074779
623,000000	100,062438
622,000000	100,071708
621,000000	100,069944
620,000000	100,074047
619,000000	100,072858
618,000000	100,077898
617,000000	100,073900
616,000000	100,077408
615,000000	100,077393
614,000000	100,076095
613,000000	100,068459
612,000000	100,071618
611,000000	100,054730
610,000000	100,033039
609,000000	100,028932
608,000000	100,045677
607,000000	100,064406
606,000000	100,063574
605,000000	100,068133
604,000000	100,071290
603,000000	100,059342
602,000000	100,066003
601,000000	100,068220
600,000000	100,071960
599,000000	100,058138
598,000000	100,059183
597,000000	100,089826
596,000000	100,065134
595,000000	100,082085
594,000000	100,084417
593,000000	100,075406
592,000000	100,088610
591,000000	100,065919
590,000000	100,074795
589,000000	100,084606
588,000000	100,086933
587,000000	100,083417
586,000000	100,089352
585,000000	100,081628
584,000000	100,109080
583,000000	100,109538
582,000000	100,105549
581,000000	100,098644
580,000000	100,109254
579,000000	100,097334
578,000000	100,102350
577,000000	100,110622
576,000000	100,110484
575,000000	100,120863
574,000000	100,096805
573,000000	100,112768
572,000000	100,087213
571,000000	100,093616
570,000000	100,100713
569,000000	100,098601
568,000000	100,107676
567,000000	100,103717
566,000000	100,114768
565,000000	100,114050
564,000000	100,108313
563,000000	100,090706
562,000000	100,104297
561,000000	100,093805
560,000000	100,097505
559,000000	100,063284
558,000000	100,074294
557,000000	100,086232
556,000000	100,087371
555,000000	100,103494
554,000000	100,081476
553,000000	100,087620
552,000000	100,106973
551,000000	100,079854
550,000000	100,073005
549,000000	100,088425
548,000000	100,071612
547,000000	100,068723
546,000000	100,065485
545,000000	100,066774
544,000000	100,044177
543,000000	100,069135
542,000000	100,073229
541,000000	100,075703
540,000000	100,067720
539,000000	100,074261
538,000000	100,074088
537,000000	100,088245
536,000000	100,072350
535,000000	100,080591
534,000000	100,067016
533,000000	100,076580
532,000000	100,060298
531,000000	100,064856
530,000000	100,075903
529,000000	100,065689
528,000000	100,051440
527,000000	100,052987
526,000000	100,064520
525,000000	100,081843
524,000000	100,072426
523,000000	100,068950
522,000000	100,068586
521,000000	100,062327
520,000000	100,072733
519,000000	100,075196
518,000000	100,076225
517,000000	100,088775
516,000000	100,080008
515,000000	100,074865
514,000000	100,084400
513,000000	100,077707
512,000000	100,067204
511,000000	100,051626
510,000000	100,051210
509,000000	100,045138
508,000000	100,055049
507,000000	100,049418
506,000000	100,047894
505,000000	100,049603
504,000000	100,041432
503,000000	100,051713
502,000000	100,053362
501,000000	100,068776
500,000000	100,048682
499,000000	100,042639
498,000000	100,059195
497,000000	100,060775
496,000000	100,040011
495,000000	100,059154
494,000000	100,052787
493,000000	100,056698
492,000000	100,062911
491,000000	100,051847
490,000000	100,057198
489,000000	100,065074
488,000000	100,070014
487,000000	100,065424
486,000000	100,066258
485,000000	100,066132
484,000000	100,052816
483,000000	100,054617
482,000000	100,050774
481,000000	100,065027
480,000000	100,071617
479,000000	100,062322
478,000000	100,065505
477,000000	100,059837
476,000000	100,058022
475,000000	100,068726
474,000000	100,070196
473,000000	100,074231
472,000000	100,061018
471,000000	100,059019
470,000000	100,074536
469,000000	100,072641
468,000000	100,062499
467,000000	100,067444
466,000000	100,070030
465,000000	100,073334
464,000000	100,074166
463,000000	100,092183
462,000000	100,093846
461,000000	100,090469
460,000000	100,095180
459,000000	100,085066
458,000000	100,077412
457,000000	100,061344
456,000000	100,063866
455,000000	100,056737
454,000000	100,057550
453,000000	100,071773
452,000000	100,067226
451,000000	100,055748
450,000000	100,052920
449,000000	100,071135
448,000000	100,082402
447,000000	100,075669
446,000000	100,077538
445,000000	100,073298
444,000000	100,070069
443,000000	100,067409
442,000000	100,075663
441,000000	100,073742
440,000000	100,068791
439,000000	100,064201
438,000000	100,056093
437,000000	100,060346
436,000000	100,060719
435,000000	100,063394
434,000000	100,065340
433,000000	100,060741
432,000000	100,061117
431,000000	100,071920
430,000000	100,068168
429,000000	100,074740
428,000000	100,081919
427,000000	100,072345
426,000000	100,055601
425,000000	100,043225
424,000000	100,039833
423,000000	100,051993
422,000000	100,047022
421,000000	100,045085
420,000000	100,042905
419,000000	100,039027
418,000000	100,049984
417,000000	100,049753
416,000000	100,041979
415,000000	100,034444
414,000000	100,047971
413,000000	100,066263
412,000000	100,069704
411,000000	100,053145
410,000000	100,049746
409,000000	100,055372
408,000000	100,041721
407,000000	100,047480
406,000000	100,057766
405,000000	100,041047
404,000000	100,044362
403,000000	100,049764
402,000000	100,048315
401,000000	100,042335
400,000000	100,037581
399,000000	100,026330
398,000000	100,010046
397,000000	100,022065
396,000000	100,036180
395,000000	100,036437
394,000000	100,043326
393,000000	100,026154
392,000000	100,022850
391,000000	100,030358
390,000000	100,038490
389,000000	100,029771
388,000000	100,016245
387,000000	100,018716
386,000000	100,031788
385,000000	100,048447
384,000000	100,049088
383,000000	100,042319
382,000000	100,036536
381,000000	100,040135
380,000000	100,057697
379,000000	99,898288
378,000000	99,894538
377,000000	99,890768
376,000000	99,911497
375,000000	99,900795
374,000000	100,009978
373,000000	99,990125
372,000000	100,015073
371,000000	99,995896
370,000000	99,920889
369,000000	99,951498
368,000000	99,947569
367,000000	99,961933
366,000000	99,975484
365,000000	99,980079
364,000000	99,972892
363,000000	99,945112
362,000000	99,956390
361,000000	99,959882
360,000000	99,957890
359,000000	100,002077
358,000000	99,946086
357,000000	99,919868
356,000000	99,930323
355,000000	99,954394
354,000000	99,951159
353,000000	99,973720
352,000000	99,949610
351,000000	99,917837
350,000000	99,964785
349,000000	100,015900
348,000000	99,986183
347,000000	99,942741
346,000000	99,968247
345,000000	99,986894
344,000000	99,947043
343,000000	99,984516
342,000000	100,003470
341,000000	99,961444
340,000000	99,948142
339,000000	99,909399
338,000000	99,904997
337,000000	99,903835
336,000000	99,974880
335,000000	100,023283
334,000000	99,956424
333,000000	99,945070
332,000000	99,904210
331,000000	99,864940
330,000000	99,952974
329,000000	99,979904
328,000000	99,958299
327,000000	99,952829
326,000000	99,952667
325,000000	99,927087
324,000000	99,933875
323,000000	99,999625
322,000000	99,971744
321,000000	100,032384
320,000000	100,106471
319,000000	100,065870
318,000000	100,045099
317,000000	100,068444
316,000000	100,035135
315,000000	100,034499
314,000000	100,039829
313,000000	100,038542
312,000000	100,046477
311,000000	100,007399
310,000000	100,042339
309,000000	100,070962
308,000000	100,043422
307,000000	100,028867
306,000000	100,043714
305,000000	100,047512
304,000000	100,043236
303,000000	100,067246
302,000000	100,055803
301,000000	100,009131
300,000000	100,038377
299,000000	100,028864
298,000000	100,026534
297,000000	100,029034
296,000000	100,039657
295,000000	100,057504
294,000000	100,034736
293,000000	100,022163
292,000000	100,026250
291,000000	99,989493
290,000000	100,021031
289,000000	100,002893
288,000000	100,027893
287,000000	100,039761
286,000000	100,053212
285,000000	100,070235
284,000000	100,058924
283,000000	100,057227
282,000000	100,061060
281,000000	100,018067
280,000000	100,053563
279,000000	100,059899
278,000000	100,048692
277,000000	100,040383
276,000000	100,066125
275,000000	100,081187
274,000000	100,072083
273,000000	100,046860
272,000000	100,046999
271,000000	100,069202
270,000000	100,065241
269,000000	100,061820
268,000000	100,050859
267,000000	100,046253
266,000000	100,066098
265,000000	100,073795
264,000000	100,054233
263,000000	100,049350
262,000000	100,032552
261,000000	100,066187
260,000000	100,069393
259,000000	100,060405
258,000000	100,069703
257,000000	100,059516
256,000000	100,068151
255,000000	100,059951
254,000000	100,049095
253,000000	100,058151
252,000000	100,056050
251,000000	100,057277
250,000000	100,068886
249,000000	100,082786
248,000000	100,102285
247,000000	100,081040
246,000000	100,058151
245,000000	100,062755
244,000000	100,045580
243,000000	100,043098
242,000000	100,025197
241,000000	100,031951
240,000000	100,060257
239,000000	100,053218
238,000000	100,052095
237,000000	100,062062
236,000000	100,056337
235,000000	100,036476
234,000000	100,055254
233,000000	100,065346
232,000000	100,056806
231,000000	100,056266
230,000000	100,047820
229,000000	100,057018
228,000000	100,054239
227,000000	100,052263
226,000000	100,060824
225,000000	100,075800
224,000000	100,070514
223,000000	100,072231
222,000000	100,064409
221,000000	100,057545
220,000000	100,062715
219,000000	100,067589
218,000000	100,057203
217,000000	100,072517
216,000000	100,075768
215,000000	100,061911
214,000000	100,050103
213,000000	100,048690
212,000000	100,054081
211,000000	100,056470
210,000000	100,047523
209,000000	100,051751
208,000000	100,055454
207,000000	100,058897
206,000000	100,053400
205,000000	100,058267
204,000000	100,076320
203,000000	100,094110
202,000000	100,067570
201,000000	100,060438
200,000000	100,044266
