PE UV       SUBTECH     SPECTRUM    ASCII       PEDS        4.00        
   -1
sampleC.Sample.asc
22/01/27
15:42:12.00
22/01/27
15:42:12.00
Administrator

200,000000
1
Lambda 1050
1050L1808311
PerkinElmer UV WinLab 6.4.0.973 / 2.02.11 Lambda 900 UV/VIS/NIR, May 23 2018 11:23:04

0
0
3350/servo 1800,8/servo 860,8/2
0
0
UV/VIS
1
1
1
CommonBeamDepol,RBeamAtt,SBeamAtt,uv/vis/nir detector, TDS WB InGaAs Detector
0
0
0
0
Program
Program
3350/servo 1800,8/servo 860,8/2
3350/0,2 1800,8/0,2 860,8/0,2
3350/0,2 1800,8/0,2 860,8/0,2
0
3350/1,00 1800,8/1,00
 
 
 
0
 
860,8
319,2
1800,8 860,8
Front
100
on
S:100 R:100
 
0
0
0
 
0
 
 
 
0
 
 
0
0
0
0
0
 
 
 
 
0
0


0
0
#HDR
-1
-1
#GR
nm
%T
1.0
0.0
2000,000000
-1,000000
1801
8
49,890664
0,168953
#DATA
2000,000000	42,596515
1999,000000	42,625651
1998,000000	42,577502
1997,000000	42,587354
1996,000000	42,540564
1995,000000	42,552965
1994,000000	42,516289
1993,000000	42,526233
1992,000000	42,496913
1991,000000	42,495395
1990,000000	42,448863
1989,000000	42,440424
1988,000000	42,399309
1987,000000	42,407212
1986,000000	42,379407
1985,000000	42,381234
1984,000000	42,334421
1983,000000	42,346704
1982,000000	42,302711
1981,000000	42,296066
1980,000000	42,269540
1979,000000	42,278658
1978,000000	42,236148
1977,000000	42,261597
1976,000000	42,213596
1975,000000	42,218945
1974,000000	42,185495
1973,000000	42,188058
1972,000000	42,158620
1971,000000	42,156781
1970,000000	42,106853
1969,000000	42,111387
1968,000000	42,093382
1967,000000	42,095968
1966,000000	42,053751
1965,000000	42,065025
1964,000000	42,034640
1963,000000	42,038947
1962,000000	42,012747
1961,000000	42,011354
1960,000000	41,983645
1959,000000	41,976919
1958,000000	41,941443
1957,000000	41,939669
1956,000000	41,929431
1955,000000	41,919084
1954,000000	41,899921
1953,000000	41,885154
1952,000000	41,851631
1951,000000	41,836694
1950,000000	41,798566
1949,000000	41,793349
1948,000000	41,749778
1947,000000	41,760593
1946,000000	41,729105
1945,000000	41,722070
1944,000000	41,713453
1943,000000	41,709166
1942,000000	41,663929
1941,000000	41,651787
1940,000000	41,641750
1939,000000	41,624427
1938,000000	41,622696
1937,000000	41,643070
1936,000000	41,583484
1935,000000	41,562362
1934,000000	41,545459
1933,000000	41,529441
1932,000000	41,483238
1931,000000	41,484950
1930,000000	41,468743
1929,000000	41,439613
1928,000000	41,436050
1927,000000	41,455521
1926,000000	41,396144
1925,000000	41,371227
1924,000000	41,324310
1923,000000	41,270637
1922,000000	41,231700
1921,000000	41,248648
1920,000000	41,231231
1919,000000	41,234541
1918,000000	41,247763
1917,000000	41,204747
1916,000000	41,118087
1915,000000	41,103239
1914,000000	41,071886
1913,000000	41,014421
1912,000000	41,020037
1911,000000	41,015463
1910,000000	40,939775
1909,000000	40,909377
1908,000000	40,893070
1907,000000	40,840806
1906,000000	40,782455
1905,000000	40,806204
1904,000000	40,826021
1903,000000	40,781155
1902,000000	40,752435
1901,000000	40,739312
1900,000000	40,647309
1899,000000	40,630249
1898,000000	40,605119
1897,000000	40,537206
1896,000000	40,478511
1895,000000	40,434815
1894,000000	40,349374
1893,000000	40,309762
1892,000000	40,289548
1891,000000	40,257722
1890,000000	40,232131
1889,000000	40,237784
1888,000000	40,192346
1887,000000	40,114324
1886,000000	40,073120
1885,000000	40,048718
1884,000000	39,994840
1883,000000	40,009516
1882,000000	39,994883
1881,000000	39,932449
1880,000000	39,877310
1879,000000	39,808169
1878,000000	39,726849
1877,000000	39,708020
1876,000000	39,693443
1875,000000	39,675872
1874,000000	39,649012
1873,000000	39,592245
1872,000000	39,548419
1871,000000	39,533331
1870,000000	39,517217
1869,000000	39,489732
1868,000000	39,438020
1867,000000	39,389491
1866,000000	39,319487
1865,000000	39,257712
1864,000000	39,213213
1863,000000	39,168634
1862,000000	39,167833
1861,000000	39,187606
1860,000000	39,165671
1859,000000	39,165205
1858,000000	39,179434
1857,000000	39,124615
1856,000000	39,074346
1855,000000	39,029890
1854,000000	38,948787
1853,000000	38,906452
1852,000000	38,898417
1851,000000	38,829195
1850,000000	38,769951
1849,000000	38,744976
1848,000000	38,674099
1847,000000	38,661996
1846,000000	38,693044
1845,000000	38,630067
1844,000000	38,533987
1843,000000	38,479402
1842,000000	38,411329
1841,000000	38,379687
1840,000000	38,361578
1839,000000	38,301395
1838,000000	38,277246
1837,000000	38,267319
1836,000000	38,205546
1835,000000	38,158838
1834,000000	38,166904
1833,000000	38,109753
1832,000000	38,028281
1831,000000	37,928114
1830,000000	37,869028
1829,000000	37,855365
1828,000000	37,858044
1827,000000	37,815765
1826,000000	37,782005
1825,000000	37,758679
1824,000000	37,684739
1823,000000	37,619721
1822,000000	37,580125
1821,000000	37,546675
1820,000000	37,587856
1819,000000	37,617841
1818,000000	37,571372
1817,000000	37,486214
1816,000000	37,405123
1815,000000	37,347360
1814,000000	37,333843
1813,000000	37,293940
1812,000000	37,249976
1811,000000	37,190956
1810,000000	37,149767
1809,000000	37,112828
1808,000000	37,071390
1807,000000	37,014740
1806,000000	37,004543
1805,000000	36,977026
1804,000000	36,955451
1803,000000	36,905056
1802,000000	36,866965
1801,000000	36,817282
1800,000000	36,630280
1799,000000	36,595595
1798,000000	36,563584
1797,000000	36,534604
1796,000000	36,503775
1795,000000	36,472808
1794,000000	36,438760
1793,000000	36,403945
1792,000000	36,367633
1791,000000	36,333597
1790,000000	36,302414
1789,000000	36,270572
1788,000000	36,239190
1787,000000	36,208763
1786,000000	36,177828
1785,000000	36,143439
1784,000000	36,111927
1783,000000	36,082105
1782,000000	36,055569
1781,000000	36,030981
1780,000000	36,000101
1779,000000	35,968760
1778,000000	35,934874
1777,000000	35,901880
1776,000000	35,872141
1775,000000	35,844035
1774,000000	35,814502
1773,000000	35,781684
1772,000000	35,751501
1771,000000	35,721040
1770,000000	35,691786
1769,000000	35,663448
1768,000000	35,638493
1767,000000	35,609571
1766,000000	35,582512
1765,000000	35,553475
1764,000000	35,529295
1763,000000	35,502357
1762,000000	35,478949
1761,000000	35,454709
1760,000000	35,428402
1759,000000	35,402207
1758,000000	35,375972
1757,000000	35,350305
1756,000000	35,325709
1755,000000	35,302571
1754,000000	35,278562
1753,000000	35,253696
1752,000000	35,224709
1751,000000	35,200563
1750,000000	35,181963
1749,000000	35,160092
1748,000000	35,136212
1747,000000	35,107477
1746,000000	35,077095
1745,000000	35,052712
1744,000000	35,032042
1743,000000	35,010901
1742,000000	34,988421
1741,000000	34,965709
1740,000000	34,944808
1739,000000	34,927236
1738,000000	34,906885
1737,000000	34,882990
1736,000000	34,860674
1735,000000	34,835343
1734,000000	34,810611
1733,000000	34,784455
1732,000000	34,762919
1731,000000	34,744439
1730,000000	34,725921
1729,000000	34,708176
1728,000000	34,690581
1727,000000	34,673973
1726,000000	34,655646
1725,000000	34,638042
1724,000000	34,621167
1723,000000	34,602176
1722,000000	34,583914
1721,000000	34,566363
1720,000000	34,547540
1719,000000	34,530754
1718,000000	34,509768
1717,000000	34,493200
1716,000000	34,476953
1715,000000	34,460501
1714,000000	34,444949
1713,000000	34,429705
1712,000000	34,410425
1711,000000	34,393519
1710,000000	34,380264
1709,000000	34,366934
1708,000000	34,347328
1707,000000	34,325829
1706,000000	34,309726
1705,000000	34,293898
1704,000000	34,278883
1703,000000	34,265332
1702,000000	34,249600
1701,000000	34,234865
1700,000000	34,223213
1699,000000	34,209767
1698,000000	34,195554
1697,000000	34,183887
1696,000000	34,169611
1695,000000	34,153903
1694,000000	34,136367
1693,000000	34,120292
1692,000000	34,105098
1691,000000	34,093197
1690,000000	34,083524
1689,000000	34,072309
1688,000000	34,058633
1687,000000	34,046612
1686,000000	34,038126
1685,000000	34,028335
1684,000000	34,013692
1683,000000	33,998262
1682,000000	33,985301
1681,000000	33,973483
1680,000000	33,961708
1679,000000	33,952447
1678,000000	33,943102
1677,000000	33,932085
1676,000000	33,921384
1675,000000	33,910751
1674,000000	33,899404
1673,000000	33,890316
1672,000000	33,882832
1671,000000	33,876675
1670,000000	33,868002
1669,000000	33,857232
1668,000000	33,846451
1667,000000	33,835244
1666,000000	33,825777
1665,000000	33,819311
1664,000000	33,812736
1663,000000	33,804660
1662,000000	33,798716
1661,000000	33,793966
1660,000000	33,785346
1659,000000	33,774017
1658,000000	33,764785
1657,000000	33,755586
1656,000000	33,745186
1655,000000	33,734142
1654,000000	33,723218
1653,000000	33,709773
1652,000000	33,699821
1651,000000	33,689185
1650,000000	33,674810
1649,000000	33,661153
1648,000000	33,649154
1647,000000	33,639734
1646,000000	33,626678
1645,000000	33,614236
1644,000000	33,602786
1643,000000	33,590980
1642,000000	33,581318
1641,000000	33,567382
1640,000000	33,555241
1639,000000	33,543598
1638,000000	33,529550
1637,000000	33,516487
1636,000000	33,505494
1635,000000	33,494317
1634,000000	33,481226
1633,000000	33,466439
1632,000000	33,450617
1631,000000	33,436745
1630,000000	33,426239
1629,000000	33,414658
1628,000000	33,400395
1627,000000	33,383530
1626,000000	33,366431
1625,000000	33,351200
1624,000000	33,336617
1623,000000	33,320810
1622,000000	33,306414
1621,000000	33,291940
1620,000000	33,277809
1619,000000	33,260777
1618,000000	33,241194
1617,000000	33,219825
1616,000000	33,201430
1615,000000	33,185659
1614,000000	33,168296
1613,000000	33,151860
1612,000000	33,137131
1611,000000	33,119012
1610,000000	33,100357
1609,000000	33,079799
1608,000000	33,061483
1607,000000	33,041682
1606,000000	33,021468
1605,000000	33,002934
1604,000000	32,984146
1603,000000	32,964633
1602,000000	32,944534
1601,000000	32,922763
1600,000000	32,904316
1599,000000	32,884019
1598,000000	32,865829
1597,000000	32,843581
1596,000000	32,816406
1595,000000	32,790700
1594,000000	32,768919
1593,000000	32,748081
1592,000000	32,726745
1591,000000	32,702305
1590,000000	32,675478
1589,000000	32,652135
1588,000000	32,628661
1587,000000	32,603368
1586,000000	32,576443
1585,000000	32,549443
1584,000000	32,526557
1583,000000	32,505612
1582,000000	32,481534
1581,000000	32,452391
1580,000000	32,420123
1579,000000	32,391502
1578,000000	32,367356
1577,000000	32,344122
1576,000000	32,322328
1575,000000	32,298242
1574,000000	32,271192
1573,000000	32,242547
1572,000000	32,216100
1571,000000	32,190409
1570,000000	32,163468
1569,000000	32,136205
1568,000000	32,104201
1567,000000	32,071934
1566,000000	32,041450
1565,000000	32,010564
1564,000000	31,979953
1563,000000	31,952881
1562,000000	31,926819
1561,000000	31,900242
1560,000000	31,872826
1559,000000	31,844891
1558,000000	31,814914
1557,000000	31,786334
1556,000000	31,754482
1555,000000	31,722426
1554,000000	31,694380
1553,000000	31,664252
1552,000000	31,634749
1551,000000	31,605646
1550,000000	31,576909
1549,000000	31,549641
1548,000000	31,521891
1547,000000	31,493828
1546,000000	31,465510
1545,000000	31,440045
1544,000000	31,410184
1543,000000	31,379537
1542,000000	31,352136
1541,000000	31,322478
1540,000000	31,293761
1539,000000	31,267089
1538,000000	31,240392
1537,000000	31,214675
1536,000000	31,185732
1535,000000	31,158395
1534,000000	31,131078
1533,000000	31,101734
1532,000000	31,072853
1531,000000	31,045546
1530,000000	31,019473
1529,000000	30,994460
1528,000000	30,968681
1527,000000	30,940840
1526,000000	30,915650
1525,000000	30,891746
1524,000000	30,866593
1523,000000	30,841365
1522,000000	30,820284
1521,000000	30,795170
1520,000000	30,771775
1519,000000	30,749537
1518,000000	30,727725
1517,000000	30,700889
1516,000000	30,681171
1515,000000	30,659921
1514,000000	30,635098
1513,000000	30,611710
1512,000000	30,591781
1511,000000	30,574153
1510,000000	30,551552
1509,000000	30,529877
1508,000000	30,507938
1507,000000	30,485975
1506,000000	30,464140
1505,000000	30,445382
1504,000000	30,428186
1503,000000	30,411795
1502,000000	30,390574
1501,000000	30,371807
1500,000000	30,355244
1499,000000	30,338889
1498,000000	30,318532
1497,000000	30,301288
1496,000000	30,285490
1495,000000	30,266465
1494,000000	30,249004
1493,000000	30,232172
1492,000000	30,216220
1491,000000	30,198010
1490,000000	30,184347
1489,000000	30,172190
1488,000000	30,158894
1487,000000	30,144519
1486,000000	30,133275
1485,000000	30,123835
1484,000000	30,108952
1483,000000	30,096187
1482,000000	30,084052
1481,000000	30,071247
1480,000000	30,058498
1479,000000	30,047023
1478,000000	30,034628
1477,000000	30,018990
1476,000000	30,008949
1475,000000	30,000367
1474,000000	29,988934
1473,000000	29,980453
1472,000000	29,970610
1471,000000	29,960443
1470,000000	29,952892
1469,000000	29,948894
1468,000000	29,946609
1467,000000	29,941742
1466,000000	29,936487
1465,000000	29,932354
1464,000000	29,927242
1463,000000	29,916879
1462,000000	29,914954
1461,000000	29,913770
1460,000000	29,913906
1459,000000	29,909990
1458,000000	29,909769
1457,000000	29,909455
1456,000000	29,912597
1455,000000	29,915397
1454,000000	29,929589
1453,000000	29,951977
1452,000000	29,930214
1451,000000	29,908093
1450,000000	29,907449
1449,000000	29,909839
1448,000000	29,913405
1447,000000	29,915370
1446,000000	29,916695
1445,000000	29,917427
1444,000000	29,916914
1443,000000	29,917131
1442,000000	29,917504
1441,000000	29,920334
1440,000000	29,923936
1439,000000	29,928345
1438,000000	29,933899
1437,000000	29,938741
1436,000000	29,942585
1435,000000	29,945451
1434,000000	29,944296
1433,000000	29,946288
1432,000000	29,952463
1431,000000	29,959416
1430,000000	29,963453
1429,000000	29,968176
1428,000000	29,976309
1427,000000	29,981560
1426,000000	29,984098
1425,000000	29,987030
1424,000000	29,989676
1423,000000	29,995566
1422,000000	29,998808
1421,000000	30,002026
1420,000000	30,008428
1419,000000	30,010329
1418,000000	30,020292
1417,000000	30,026620
1416,000000	30,030478
1415,000000	30,036202
1414,000000	30,041929
1413,000000	30,046864
1412,000000	30,053254
1411,000000	30,060041
1410,000000	30,068119
1409,000000	30,078575
1408,000000	30,086235
1407,000000	30,091702
1406,000000	30,098493
1405,000000	30,104256
1404,000000	30,110624
1403,000000	30,114094
1402,000000	30,118121
1401,000000	30,126459
1400,000000	30,135231
1399,000000	30,142805
1398,000000	30,147305
1397,000000	30,153592
1396,000000	30,159722
1395,000000	30,166151
1394,000000	30,170659
1393,000000	30,173625
1392,000000	30,177765
1391,000000	30,182277
1390,000000	30,184666
1389,000000	30,185970
1388,000000	30,192325
1387,000000	30,198961
1386,000000	30,201588
1385,000000	30,202264
1384,000000	30,203399
1383,000000	30,207080
1382,000000	30,211133
1381,000000	30,213159
1380,000000	30,214213
1379,000000	30,214083
1378,000000	30,215554
1377,000000	30,218883
1376,000000	30,220361
1375,000000	30,219435
1374,000000	30,218354
1373,000000	30,218035
1372,000000	30,219099
1371,000000	30,217319
1370,000000	30,215456
1369,000000	30,216514
1368,000000	30,213650
1367,000000	30,206980
1366,000000	30,200402
1365,000000	30,195503
1364,000000	30,190278
1363,000000	30,182904
1362,000000	30,174965
1361,000000	30,169053
1360,000000	30,167109
1359,000000	30,163897
1358,000000	30,163068
1357,000000	30,165467
1356,000000	30,164308
1355,000000	30,158957
1354,000000	30,155365
1353,000000	30,154860
1352,000000	30,153110
1351,000000	30,150388
1350,000000	30,146124
1349,000000	30,143596
1348,000000	30,146088
1347,000000	30,158810
1346,000000	30,154718
1345,000000	30,167324
1344,000000	30,217044
1343,000000	30,236695
1342,000000	30,207523
1341,000000	30,180295
1340,000000	30,179397
1339,000000	30,177298
1338,000000	30,169606
1337,000000	30,191948
1336,000000	30,187835
1335,000000	30,161915
1334,000000	30,156533
1333,000000	30,150114
1332,000000	30,143313
1331,000000	30,136150
1330,000000	30,126568
1329,000000	30,118322
1328,000000	30,111195
1327,000000	30,104246
1326,000000	30,097819
1325,000000	30,092406
1324,000000	30,087373
1323,000000	30,080957
1322,000000	30,074579
1321,000000	30,091730
1320,000000	30,071819
1319,000000	30,048443
1318,000000	30,043564
1317,000000	30,059827
1316,000000	30,070119
1315,000000	30,037003
1314,000000	30,016632
1313,000000	30,016861
1312,000000	30,017582
1311,000000	30,016385
1310,000000	30,038237
1309,000000	30,020869
1308,000000	30,001014
1307,000000	30,000000
1306,000000	29,998801
1305,000000	29,996392
1304,000000	29,994090
1303,000000	29,994185
1302,000000	29,998640
1301,000000	30,003313
1300,000000	30,008915
1299,000000	30,014573
1298,000000	30,019300
1297,000000	30,023400
1296,000000	30,027209
1295,000000	30,033227
1294,000000	30,073917
1293,000000	30,097638
1292,000000	30,079193
1291,000000	30,074237
1290,000000	30,080762
1289,000000	30,089820
1288,000000	30,099659
1287,000000	30,148436
1286,000000	30,173149
1285,000000	30,184078
1284,000000	30,166887
1283,000000	30,166619
1282,000000	30,178103
1281,000000	30,192044
1280,000000	30,208385
1279,000000	30,222412
1278,000000	30,236837
1277,000000	30,252359
1276,000000	30,268676
1275,000000	30,286038
1274,000000	30,300264
1273,000000	30,318174
1272,000000	30,368372
1271,000000	30,361836
1270,000000	30,370359
1269,000000	30,392494
1268,000000	30,415571
1267,000000	30,440921
1266,000000	30,502072
1265,000000	30,537337
1264,000000	30,525742
1263,000000	30,541852
1262,000000	30,568931
1261,000000	30,597416
1260,000000	30,619597
1259,000000	30,645714
1258,000000	30,679781
1257,000000	30,711264
1256,000000	30,744327
1255,000000	30,775904
1254,000000	30,808874
1253,000000	30,843285
1252,000000	30,876473
1251,000000	30,909358
1250,000000	30,941336
1249,000000	30,974831
1248,000000	31,007836
1247,000000	31,044595
1246,000000	31,077897
1245,000000	31,110416
1244,000000	31,145932
1243,000000	31,179725
1242,000000	31,214850
1241,000000	31,249014
1240,000000	31,282679
1239,000000	31,349768
1238,000000	31,348269
1237,000000	31,379803
1236,000000	31,416299
1235,000000	31,454068
1234,000000	31,524899
1233,000000	31,524057
1232,000000	31,553564
1231,000000	31,587543
1230,000000	31,656781
1229,000000	31,660793
1228,000000	31,696508
1227,000000	31,733853
1226,000000	31,806797
1225,000000	31,808941
1224,000000	31,844412
1223,000000	31,879348
1222,000000	31,913987
1221,000000	31,985649
1220,000000	32,031263
1219,000000	32,030997
1218,000000	32,069199
1217,000000	32,106037
1216,000000	32,141392
1215,000000	32,176608
1214,000000	32,213143
1213,000000	32,249780
1212,000000	32,285387
1211,000000	32,323898
1210,000000	32,358514
1209,000000	32,392461
1208,000000	32,427513
1207,000000	32,459398
1206,000000	32,486681
1205,000000	32,510986
1204,000000	32,546100
1203,000000	32,581719
1202,000000	32,612534
1201,000000	32,635091
1200,000000	32,698217
1199,000000	32,726494
1198,000000	32,749588
1197,000000	32,778065
1196,000000	32,804151
1195,000000	32,833572
1194,000000	32,857048
1193,000000	32,878378
1192,000000	32,899618
1191,000000	32,886445
1190,000000	32,896433
1189,000000	32,923533
1188,000000	32,949114
1187,000000	32,967623
1186,000000	32,983073
1185,000000	33,004526
1184,000000	33,026392
1183,000000	33,047571
1182,000000	33,066332
1181,000000	33,085637
1180,000000	33,107523
1179,000000	33,127481
1178,000000	33,148596
1177,000000	33,169379
1176,000000	33,186441
1175,000000	33,201536
1174,000000	33,221550
1173,000000	33,240909
1172,000000	33,259036
1171,000000	33,276819
1170,000000	33,295336
1169,000000	33,311388
1168,000000	33,330907
1167,000000	33,350315
1166,000000	33,369302
1165,000000	33,381317
1164,000000	33,394949
1163,000000	33,415947
1162,000000	33,440845
1161,000000	33,464662
1160,000000	33,490828
1159,000000	33,510671
1158,000000	33,530240
1157,000000	33,549738
1156,000000	33,570066
1155,000000	33,591493
1154,000000	33,609854
1153,000000	33,632419
1152,000000	33,653253
1151,000000	33,675220
1150,000000	33,699199
1149,000000	33,729961
1148,000000	33,760241
1147,000000	33,787538
1146,000000	33,814267
1145,000000	33,839641
1144,000000	33,866220
1143,000000	33,900381
1142,000000	33,935811
1141,000000	33,970710
1140,000000	34,004754
1139,000000	34,043876
1138,000000	34,078917
1137,000000	34,116507
1136,000000	34,155454
1135,000000	34,194384
1134,000000	34,239690
1133,000000	34,282623
1132,000000	34,320890
1131,000000	34,364565
1130,000000	34,412077
1129,000000	34,460191
1128,000000	34,508086
1127,000000	34,556205
1126,000000	34,606901
1125,000000	34,656468
1124,000000	34,706330
1123,000000	34,757159
1122,000000	34,812210
1121,000000	34,869579
1120,000000	34,926436
1119,000000	34,983527
1118,000000	35,042227
1117,000000	35,100076
1116,000000	35,160137
1115,000000	35,219551
1114,000000	35,276156
1113,000000	35,335368
1112,000000	35,399995
1111,000000	35,464031
1110,000000	35,529977
1109,000000	35,596234
1108,000000	35,664505
1107,000000	35,732668
1106,000000	35,800437
1105,000000	35,870379
1104,000000	35,939614
1103,000000	36,008528
1102,000000	36,076314
1101,000000	36,145322
1100,000000	36,213774
1099,000000	36,280350
1098,000000	36,349313
1097,000000	36,420807
1096,000000	36,494586
1095,000000	36,566381
1094,000000	36,638017
1093,000000	36,708040
1092,000000	36,778100
1091,000000	36,849420
1090,000000	36,919820
1089,000000	36,990755
1088,000000	37,059156
1087,000000	37,127142
1086,000000	37,193563
1085,000000	37,259798
1084,000000	37,328953
1083,000000	37,397512
1082,000000	37,461251
1081,000000	37,526438
1080,000000	37,593240
1079,000000	37,657119
1078,000000	37,720004
1077,000000	37,783165
1076,000000	37,846529
1075,000000	37,908568
1074,000000	37,963870
1073,000000	38,018903
1072,000000	38,076737
1071,000000	38,131352
1070,000000	38,183859
1069,000000	38,241788
1068,000000	38,297381
1067,000000	38,350686
1066,000000	38,402636
1065,000000	38,452112
1064,000000	38,496718
1063,000000	38,539533
1062,000000	38,585930
1061,000000	38,631180
1060,000000	38,676858
1059,000000	38,722506
1058,000000	38,765967
1057,000000	38,807172
1056,000000	38,847544
1055,000000	38,883658
1054,000000	38,918511
1053,000000	38,958720
1052,000000	39,000612
1051,000000	39,038249
1050,000000	39,069801
1049,000000	39,102623
1048,000000	39,141709
1047,000000	39,182544
1046,000000	39,220300
1045,000000	39,253846
1044,000000	39,284459
1043,000000	39,316685
1042,000000	39,351456
1041,000000	39,385625
1040,000000	39,419440
1039,000000	39,454452
1038,000000	39,489492
1037,000000	39,525002
1036,000000	39,562483
1035,000000	39,600724
1034,000000	39,638199
1033,000000	39,674517
1032,000000	39,711928
1031,000000	39,751463
1030,000000	39,792394
1029,000000	39,835071
1028,000000	39,878423
1027,000000	39,918843
1026,000000	39,959168
1025,000000	40,002798
1024,000000	40,049876
1023,000000	40,096445
1022,000000	40,143457
1021,000000	40,194593
1020,000000	40,248556
1019,000000	40,306471
1018,000000	40,366533
1017,000000	40,422594
1016,000000	40,475417
1015,000000	40,530187
1014,000000	40,589512
1013,000000	40,652712
1012,000000	40,718328
1011,000000	40,783713
1010,000000	40,850024
1009,000000	40,915144
1008,000000	40,980955
1007,000000	41,050924
1006,000000	41,122618
1005,000000	41,193058
1004,000000	41,266739
1003,000000	41,343260
1002,000000	41,419547
1001,000000	41,499088
1000,000000	41,575872
999,000000	41,652447
998,000000	41,733139
997,000000	41,817030
996,000000	41,898684
995,000000	41,981562
994,000000	42,066815
993,000000	42,152279
992,000000	42,235941
991,000000	42,318398
990,000000	42,403590
989,000000	42,493842
988,000000	42,579412
987,000000	42,665142
986,000000	42,747517
985,000000	42,828314
984,000000	42,909205
983,000000	42,991350
982,000000	43,070369
981,000000	43,149751
980,000000	43,229458
979,000000	43,306468
978,000000	43,383461
977,000000	43,459225
976,000000	43,536178
975,000000	43,610205
974,000000	43,683818
973,000000	43,752110
972,000000	43,818470
971,000000	43,885587
970,000000	43,949125
969,000000	44,011744
968,000000	44,072539
967,000000	44,130850
966,000000	44,188572
965,000000	44,246973
964,000000	44,302127
963,000000	44,352009
962,000000	44,398504
961,000000	44,448641
960,000000	44,499890
959,000000	44,551314
958,000000	44,604757
957,000000	44,652776
956,000000	44,694799
955,000000	44,734191
954,000000	44,769037
953,000000	44,802441
952,000000	44,835019
951,000000	44,871464
950,000000	44,904104
949,000000	44,936811
948,000000	44,972426
947,000000	45,007302
946,000000	45,034823
945,000000	45,065448
944,000000	45,094815
943,000000	45,127330
942,000000	45,158966
941,000000	45,189109
940,000000	45,219541
939,000000	45,251098
938,000000	45,284492
937,000000	45,320449
936,000000	45,352822
935,000000	45,381652
934,000000	45,418795
933,000000	45,460058
932,000000	45,493549
931,000000	45,534082
930,000000	45,567049
929,000000	45,605638
928,000000	45,645076
927,000000	45,688727
926,000000	45,726549
925,000000	45,769828
924,000000	45,817384
923,000000	45,860628
922,000000	45,903292
921,000000	45,954602
920,000000	46,010417
919,000000	46,064861
918,000000	46,117783
917,000000	46,174628
916,000000	46,231435
915,000000	46,285724
914,000000	46,344125
913,000000	46,403035
912,000000	46,462579
911,000000	46,520596
910,000000	46,581735
909,000000	46,644273
908,000000	46,706977
907,000000	46,771203
906,000000	46,841937
905,000000	46,905103
904,000000	46,968501
903,000000	47,030425
902,000000	47,095897
901,000000	47,163868
900,000000	47,223964
899,000000	47,282373
898,000000	47,342853
897,000000	47,406318
896,000000	47,462861
895,000000	47,515653
894,000000	47,571531
893,000000	47,620298
892,000000	47,668214
891,000000	47,719821
890,000000	47,768238
889,000000	47,821113
888,000000	47,868867
887,000000	47,913422
886,000000	47,952219
885,000000	47,996080
884,000000	48,036046
883,000000	48,071429
882,000000	48,108265
881,000000	48,138400
880,000000	48,172044
879,000000	48,194907
878,000000	48,220325
877,000000	48,240617
876,000000	48,259653
875,000000	48,284602
874,000000	48,302351
873,000000	48,316412
872,000000	48,333680
871,000000	48,340460
870,000000	48,352194
869,000000	48,367129
868,000000	48,375634
867,000000	48,384112
866,000000	48,388303
865,000000	48,394180
864,000000	48,403521
863,000000	48,399961
862,000000	48,405070
861,000000	48,411779
860,000000	49,132822
859,000000	49,087865
858,000000	49,096262
857,000000	49,108638
856,000000	49,136982
855,000000	49,130725
854,000000	49,175350
853,000000	49,172262
852,000000	49,183158
851,000000	49,203455
850,000000	49,214190
849,000000	49,224245
848,000000	49,249232
847,000000	49,286099
846,000000	49,303202
845,000000	49,319611
844,000000	49,341593
843,000000	49,364340
842,000000	49,392580
841,000000	49,407173
840,000000	49,446289
839,000000	49,448152
838,000000	49,500028
837,000000	49,542807
836,000000	49,584208
835,000000	49,599403
834,000000	49,634919
833,000000	49,659943
832,000000	49,702955
831,000000	49,713121
830,000000	49,750684
829,000000	49,763753
828,000000	49,781383
827,000000	49,813309
826,000000	49,832803
825,000000	49,823011
824,000000	49,858298
823,000000	49,873644
822,000000	49,879606
821,000000	49,890664
820,000000	49,873708
819,000000	49,877253
818,000000	49,859335
817,000000	49,859273
816,000000	49,846454
815,000000	49,835022
814,000000	49,815234
813,000000	49,793021
812,000000	49,768805
811,000000	49,731168
810,000000	49,695948
809,000000	49,641854
808,000000	49,620792
807,000000	49,587994
806,000000	49,547622
805,000000	49,493709
804,000000	49,459662
803,000000	49,408755
802,000000	49,349859
801,000000	49,309508
800,000000	49,249036
799,000000	49,195604
798,000000	49,164528
797,000000	49,095570
796,000000	49,061536
795,000000	49,001618
794,000000	48,952714
793,000000	48,899137
792,000000	48,871040
791,000000	48,812333
790,000000	48,779727
789,000000	48,744186
788,000000	48,689279
787,000000	48,643206
786,000000	48,602066
785,000000	48,583631
784,000000	48,550215
783,000000	48,507255
782,000000	48,478975
781,000000	48,458305
780,000000	48,430917
779,000000	48,402128
778,000000	48,389202
777,000000	48,366026
776,000000	48,326378
775,000000	48,307245
774,000000	48,294843
773,000000	48,269413
772,000000	48,247331
771,000000	48,215456
770,000000	48,176010
769,000000	48,151503
768,000000	48,123975
767,000000	48,085884
766,000000	48,049233
765,000000	48,004323
764,000000	47,959153
763,000000	47,896626
762,000000	47,843646
761,000000	47,781229
760,000000	47,729018
759,000000	47,651481
758,000000	47,581078
757,000000	47,515551
756,000000	47,433603
755,000000	47,348546
754,000000	47,247440
753,000000	47,151059
752,000000	47,063906
751,000000	46,959646
750,000000	46,858208
749,000000	46,757931
748,000000	46,656220
747,000000	46,538339
746,000000	46,425984
745,000000	46,322513
744,000000	46,217671
743,000000	46,100907
742,000000	45,967541
741,000000	45,847719
740,000000	45,743467
739,000000	45,640645
738,000000	45,533426
737,000000	45,419083
736,000000	45,318669
735,000000	45,213855
734,000000	45,109545
733,000000	45,012364
732,000000	44,918544
731,000000	44,831690
730,000000	44,736981
729,000000	44,645964
728,000000	44,562826
727,000000	44,477176
726,000000	44,390646
725,000000	44,301181
724,000000	44,215661
723,000000	44,133930
722,000000	44,063163
721,000000	43,991370
720,000000	43,911745
719,000000	43,830423
718,000000	43,749773
717,000000	43,661708
716,000000	43,570173
715,000000	43,474991
714,000000	43,376065
713,000000	43,271657
712,000000	43,166239
711,000000	43,065285
710,000000	42,957586
709,000000	42,849374
708,000000	42,734836
707,000000	42,610960
706,000000	42,481957
705,000000	42,345879
704,000000	42,214425
703,000000	42,087074
702,000000	41,944238
701,000000	41,804463
700,000000	41,654667
699,000000	41,495204
698,000000	41,347002
697,000000	41,199134
696,000000	41,048360
695,000000	40,900951
694,000000	40,749639
693,000000	40,598786
692,000000	40,451588
691,000000	40,300259
690,000000	40,156994
689,000000	40,018740
688,000000	39,882259
687,000000	39,746257
686,000000	39,612664
685,000000	39,485197
684,000000	39,357535
683,000000	39,227051
682,000000	39,110292
681,000000	38,997232
680,000000	38,882671
679,000000	38,768993
678,000000	38,655924
677,000000	38,540936
676,000000	38,433233
675,000000	38,325672
674,000000	38,219373
673,000000	38,107617
672,000000	37,987093
671,000000	37,876955
670,000000	37,763842
669,000000	37,651744
668,000000	37,542349
667,000000	37,414039
666,000000	37,286951
665,000000	37,157965
664,000000	37,028021
663,000000	36,896226
662,000000	36,754663
661,000000	36,616709
660,000000	36,481805
659,000000	36,342629
658,000000	36,202776
657,000000	36,065074
656,000000	35,926261
655,000000	35,791636
654,000000	35,655317
653,000000	35,525954
652,000000	35,395075
651,000000	35,261471
650,000000	35,133287
649,000000	35,012867
648,000000	34,892537
647,000000	34,773607
646,000000	34,655404
645,000000	34,550521
644,000000	34,449049
643,000000	34,346232
642,000000	34,243937
641,000000	34,148604
640,000000	34,065500
639,000000	33,981402
638,000000	33,893241
637,000000	33,813390
636,000000	33,737317
635,000000	33,660568
634,000000	33,579997
633,000000	33,500230
632,000000	33,427692
631,000000	33,350096
630,000000	33,273656
629,000000	33,202313
628,000000	33,127144
627,000000	33,050380
626,000000	32,973258
625,000000	32,897658
624,000000	32,815635
623,000000	32,735247
622,000000	32,658268
621,000000	32,595598
620,000000	32,523238
619,000000	32,443353
618,000000	32,376850
617,000000	32,312769
616,000000	32,250517
615,000000	32,192769
614,000000	32,142736
613,000000	32,090085
612,000000	32,052803
611,000000	32,019187
610,000000	31,986250
609,000000	31,961525
608,000000	31,947042
607,000000	31,935145
606,000000	31,928891
605,000000	31,929624
604,000000	31,931150
603,000000	31,941824
602,000000	31,959916
601,000000	31,982036
600,000000	32,006651
599,000000	32,016709
598,000000	32,046364
597,000000	32,076390
596,000000	32,099766
595,000000	32,127857
594,000000	32,150411
593,000000	32,176802
592,000000	32,204505
591,000000	32,225765
590,000000	32,253397
589,000000	32,285146
588,000000	32,306811
587,000000	32,331197
586,000000	32,362028
585,000000	32,400858
584,000000	32,454774
583,000000	32,498059
582,000000	32,550863
581,000000	32,613292
580,000000	32,685668
579,000000	32,755749
578,000000	32,840334
577,000000	32,940750
576,000000	33,031360
575,000000	33,142472
574,000000	33,246131
573,000000	33,366996
572,000000	33,480825
571,000000	33,614453
570,000000	33,746870
569,000000	33,875054
568,000000	34,007011
567,000000	34,136925
566,000000	34,269306
565,000000	34,387778
564,000000	34,509562
563,000000	34,630150
562,000000	34,738003
561,000000	34,849604
560,000000	34,965148
559,000000	35,074689
558,000000	35,194133
557,000000	35,309567
556,000000	35,422407
555,000000	35,557315
554,000000	35,687869
553,000000	35,811501
552,000000	35,951940
551,000000	36,090118
550,000000	36,242362
549,000000	36,402186
548,000000	36,551516
547,000000	36,725775
546,000000	36,894017
545,000000	37,060678
544,000000	37,240792
543,000000	37,410667
542,000000	37,578422
541,000000	37,745802
540,000000	37,899900
539,000000	38,046384
538,000000	38,190588
537,000000	38,325974
536,000000	38,442853
535,000000	38,562638
534,000000	38,670102
533,000000	38,775727
532,000000	38,870864
531,000000	38,965870
530,000000	39,064743
529,000000	39,154993
528,000000	39,248432
527,000000	39,348830
526,000000	39,456821
525,000000	39,560620
524,000000	39,655792
523,000000	39,747927
522,000000	39,839236
521,000000	39,923110
520,000000	39,995740
519,000000	40,062198
518,000000	40,108008
517,000000	40,143852
516,000000	40,151633
515,000000	40,147460
514,000000	40,126402
513,000000	40,093769
512,000000	40,043708
511,000000	39,988453
510,000000	39,923734
509,000000	39,857157
508,000000	39,780753
507,000000	39,694808
506,000000	39,609219
505,000000	39,525339
504,000000	39,441793
503,000000	39,349813
502,000000	39,257790
501,000000	39,159544
500,000000	39,048038
499,000000	38,918647
498,000000	38,782119
497,000000	38,620639
496,000000	38,443469
495,000000	38,257285
494,000000	38,045069
493,000000	37,823882
492,000000	37,587522
491,000000	37,336490
490,000000	37,086736
489,000000	36,837433
488,000000	36,582534
487,000000	36,335640
486,000000	36,084382
485,000000	35,850784
484,000000	35,612178
483,000000	35,372342
482,000000	35,130973
481,000000	34,899161
480,000000	34,653005
479,000000	34,390434
478,000000	34,105651
477,000000	33,804762
476,000000	33,496557
475,000000	33,187895
474,000000	32,880430
473,000000	32,570263
472,000000	32,256652
471,000000	31,955856
470,000000	31,668330
469,000000	31,390765
468,000000	31,126560
467,000000	30,874597
466,000000	30,633159
465,000000	30,397456
464,000000	30,170508
463,000000	29,956474
462,000000	29,745893
461,000000	29,548514
460,000000	29,353153
459,000000	29,165509
458,000000	28,989025
457,000000	28,833321
456,000000	28,701393
455,000000	28,595309
454,000000	28,515637
453,000000	28,463969
452,000000	28,447885
451,000000	28,449969
450,000000	28,476433
449,000000	28,529095
448,000000	28,595753
447,000000	28,662453
446,000000	28,745556
445,000000	28,836979
444,000000	28,940340
443,000000	29,059648
442,000000	29,197381
441,000000	29,342368
440,000000	29,504087
439,000000	29,676997
438,000000	29,848513
437,000000	30,017837
436,000000	30,170596
435,000000	30,296073
434,000000	30,385339
433,000000	30,435420
432,000000	30,449187
431,000000	30,412235
430,000000	30,313329
429,000000	30,157367
428,000000	29,922353
427,000000	29,587599
426,000000	29,137586
425,000000	28,567127
424,000000	27,857222
423,000000	27,016869
422,000000	26,061303
421,000000	25,008203
420,000000	23,888470
419,000000	22,746631
418,000000	21,611074
417,000000	20,513444
416,000000	19,501853
415,000000	18,592248
414,000000	17,798219
413,000000	17,127541
412,000000	16,575515
411,000000	16,123292
410,000000	15,754872
409,000000	15,467917
408,000000	15,243415
407,000000	15,066942
406,000000	14,930748
405,000000	14,818398
404,000000	14,721913
403,000000	14,640680
402,000000	14,566902
401,000000	14,499449
400,000000	14,431560
399,000000	14,354608
398,000000	14,273883
397,000000	14,191166
396,000000	14,106286
395,000000	14,009817
394,000000	13,905213
393,000000	13,792477
392,000000	13,681583
391,000000	13,569811
390,000000	13,462823
389,000000	13,356298
388,000000	13,256062
387,000000	13,169032
386,000000	13,088557
385,000000	13,018646
384,000000	12,954215
383,000000	12,899027
382,000000	12,851317
381,000000	12,801182
380,000000	12,759020
379,000000	12,660746
378,000000	12,549312
377,000000	12,492710
376,000000	12,471332
375,000000	12,439586
374,000000	12,397576
373,000000	12,344637
372,000000	12,284666
371,000000	12,198879
370,000000	12,106455
369,000000	12,029992
368,000000	11,922988
367,000000	11,829315
366,000000	11,711869
365,000000	11,574557
364,000000	11,447549
363,000000	11,309664
362,000000	11,161110
361,000000	10,983482
360,000000	10,813140
359,000000	10,625286
358,000000	10,427046
357,000000	10,231391
356,000000	10,011217
355,000000	9,785003
354,000000	9,564826
353,000000	9,349645
352,000000	9,130864
351,000000	8,909118
350,000000	8,706455
349,000000	8,497075
348,000000	8,287934
347,000000	8,085672
346,000000	7,917626
345,000000	7,743811
344,000000	7,573525
343,000000	7,417234
342,000000	7,264227
341,000000	7,103088
340,000000	6,968594
339,000000	6,822252
338,000000	6,685220
337,000000	6,554880
336,000000	6,419108
335,000000	6,304201
334,000000	6,173284
333,000000	6,055597
332,000000	5,941594
331,000000	5,827370
330,000000	5,733431
329,000000	5,614874
328,000000	5,498248
327,000000	5,355175
326,000000	5,227597
325,000000	5,107790
324,000000	4,988031
323,000000	4,875332
322,000000	4,774348
321,000000	4,678894
320,000000	4,593378
319,000000	4,531592
318,000000	4,445372
317,000000	4,360090
316,000000	4,286513
315,000000	4,215821
314,000000	4,154071
313,000000	4,092676
312,000000	4,033910
311,000000	3,974131
310,000000	3,924428
309,000000	3,882515
308,000000	3,844629
307,000000	3,801753
306,000000	3,773096
305,000000	3,748931
304,000000	3,719977
303,000000	3,692935
302,000000	3,660712
301,000000	3,629208
300,000000	3,587316
299,000000	3,540820
298,000000	3,486597
297,000000	3,426782
296,000000	3,360351
295,000000	3,294495
294,000000	3,224276
293,000000	3,143405
292,000000	3,062086
291,000000	2,971682
290,000000	2,873843
289,000000	2,762376
288,000000	2,641509
287,000000	2,505885
286,000000	2,351850
285,000000	2,188878
284,000000	2,014753
283,000000	1,828246
282,000000	1,642021
281,000000	1,450499
280,000000	1,262416
279,000000	1,080027
278,000000	0,907342
277,000000	0,748803
276,000000	0,608328
275,000000	0,490156
274,000000	0,393686
273,000000	0,320233
272,000000	0,268394
271,000000	0,231246
270,000000	0,211835
269,000000	0,200914
268,000000	0,199078
267,000000	0,192546
266,000000	0,189834
265,000000	0,183693
264,000000	0,180557
263,000000	0,180201
262,000000	0,175995
261,000000	0,174204
260,000000	0,173085
259,000000	0,173930
258,000000	0,174788
257,000000	0,173511
256,000000	0,175150
255,000000	0,173620
254,000000	0,171700
253,000000	0,170603
252,000000	0,172932
251,000000	0,169705
250,000000	0,170486
249,000000	0,170097
248,000000	0,171274
247,000000	0,170477
246,000000	0,170051
245,000000	0,171841
244,000000	0,168953
243,000000	0,170921
242,000000	0,173964
241,000000	0,174121
240,000000	0,174179
239,000000	0,174744
238,000000	0,178420
237,000000	0,179291
236,000000	0,178220
235,000000	0,179940
234,000000	0,179610
233,000000	0,180823
232,000000	0,180338
231,000000	0,182251
230,000000	0,180140
229,000000	0,180827
228,000000	0,180888
227,000000	0,178589
226,000000	0,180986
225,000000	0,181139
224,000000	0,179919
223,000000	0,178162
222,000000	0,179703
221,000000	0,179846
220,000000	0,180423
219,000000	0,179927
218,000000	0,177833
217,000000	0,178980
216,000000	0,177495
215,000000	0,179948
214,000000	0,179425
213,000000	0,179316
212,000000	0,182231
211,000000	0,182843
210,000000	0,185404
209,000000	0,185941
208,000000	0,185453
207,000000	0,189793
206,000000	0,191046
205,000000	0,193059
204,000000	0,193905
203,000000	0,196236
202,000000	0,197671
201,000000	0,201330
200,000000	0,202488
