PE UV       SUBTECH     SPECTRUM    ASCII       PEDS        4.00        
   -1
sampleB.Sample.asc
22/01/27
15:23:32.00
22/01/27
15:23:32.00
Administrator

200,000000
1
Lambda 1050
1050L1808311
PerkinElmer UV WinLab 6.4.0.973 / 2.02.11 Lambda 900 UV/VIS/NIR, May 23 2018 11:23:04

0
0
3350/servo 1800,8/servo 860,8/2
0
0
UV/VIS
1
1
1
CommonBeamDepol,RBeamAtt,SBeamAtt,uv/vis/nir detector, TDS WB InGaAs Detector
0
0
0
0
Program
Program
3350/servo 1800,8/servo 860,8/2
3350/0,2 1800,8/0,2 860,8/0,2
3350/0,2 1800,8/0,2 860,8/0,2
0
3350/1,00 1800,8/1,00
 
 
 
0
 
860,8
319,2
1800,8 860,8
Front
100
on
S:100 R:100
 
0
0
0
 
0
 
 
 
0
 
 
0
0
0
0
0
 
 
 
 
0
0


0
0
#HDR
-1
-1
#GR
nm
%T
1.0
0.0
2000,000000
-1,000000
1801
8
49,388651
0,160087
#DATA
2000,000000	47,133484
1999,000000	47,138083
1998,000000	47,099468
1997,000000	47,129216
1996,000000	47,074936
1995,000000	47,100915
1994,000000	47,061519
1993,000000	47,079546
1992,000000	47,056265
1991,000000	47,060860
1990,000000	47,013352
1989,000000	47,011838
1988,000000	46,980637
1987,000000	46,976204
1986,000000	46,944096
1985,000000	46,960072
1984,000000	46,950695
1983,000000	46,938243
1982,000000	46,905815
1981,000000	46,914690
1980,000000	46,886667
1979,000000	46,895298
1978,000000	46,876400
1977,000000	46,879466
1976,000000	46,839964
1975,000000	46,848995
1974,000000	46,820557
1973,000000	46,805837
1972,000000	46,794443
1971,000000	46,800681
1970,000000	46,773843
1969,000000	46,758711
1968,000000	46,738337
1967,000000	46,733014
1966,000000	46,707566
1965,000000	46,692125
1964,000000	46,689142
1963,000000	46,698065
1962,000000	46,664327
1961,000000	46,673876
1960,000000	46,653576
1959,000000	46,661270
1958,000000	46,621727
1957,000000	46,622003
1956,000000	46,600796
1955,000000	46,589915
1954,000000	46,564481
1953,000000	46,574151
1952,000000	46,557461
1951,000000	46,564260
1950,000000	46,521400
1949,000000	46,526223
1948,000000	46,475211
1947,000000	46,485513
1946,000000	46,462076
1945,000000	46,459382
1944,000000	46,448994
1943,000000	46,458705
1942,000000	46,411272
1941,000000	46,371761
1940,000000	46,344968
1939,000000	46,358571
1938,000000	46,374549
1937,000000	46,377186
1936,000000	46,360493
1935,000000	46,360868
1934,000000	46,323745
1933,000000	46,314712
1932,000000	46,272345
1931,000000	46,257188
1930,000000	46,228613
1929,000000	46,230663
1928,000000	46,210806
1927,000000	46,242112
1926,000000	46,230863
1925,000000	46,220350
1924,000000	46,180623
1923,000000	46,137278
1922,000000	46,077951
1921,000000	46,078581
1920,000000	46,121639
1919,000000	46,158973
1918,000000	46,161390
1917,000000	46,095208
1916,000000	45,972743
1915,000000	45,928603
1914,000000	45,916978
1913,000000	45,932364
1912,000000	45,967782
1911,000000	45,983688
1910,000000	45,947743
1909,000000	45,868440
1908,000000	45,781228
1907,000000	45,719851
1906,000000	45,722547
1905,000000	45,778765
1904,000000	45,833716
1903,000000	45,810748
1902,000000	45,731175
1901,000000	45,665055
1900,000000	45,608717
1899,000000	45,636808
1898,000000	45,671773
1897,000000	45,677105
1896,000000	45,593064
1895,000000	45,500760
1894,000000	45,416727
1893,000000	45,366604
1892,000000	45,364958
1891,000000	45,374115
1890,000000	45,383333
1889,000000	45,384947
1888,000000	45,338598
1887,000000	45,260461
1886,000000	45,199171
1885,000000	45,166770
1884,000000	45,158291
1883,000000	45,177236
1882,000000	45,167165
1881,000000	45,133167
1880,000000	45,062962
1879,000000	44,987730
1878,000000	44,924128
1877,000000	44,871423
1876,000000	44,846581
1875,000000	44,853307
1874,000000	44,827850
1873,000000	44,798708
1872,000000	44,821198
1871,000000	44,843357
1870,000000	44,845805
1869,000000	44,852357
1868,000000	44,821782
1867,000000	44,783629
1866,000000	44,726650
1865,000000	44,653733
1864,000000	44,578667
1863,000000	44,512887
1862,000000	44,468026
1861,000000	44,428016
1860,000000	44,422232
1859,000000	44,458325
1858,000000	44,467838
1857,000000	44,428262
1856,000000	44,347583
1855,000000	44,289399
1854,000000	44,277165
1853,000000	44,269488
1852,000000	44,258939
1851,000000	44,182646
1850,000000	44,054078
1849,000000	43,963281
1848,000000	43,995199
1847,000000	44,109003
1846,000000	44,174258
1845,000000	44,109261
1844,000000	43,950667
1843,000000	43,793444
1842,000000	43,725634
1841,000000	43,754062
1840,000000	43,803519
1839,000000	43,793499
1838,000000	43,737843
1837,000000	43,691172
1836,000000	43,689097
1835,000000	43,710747
1834,000000	43,693665
1833,000000	43,600211
1832,000000	43,496159
1831,000000	43,425812
1830,000000	43,421960
1829,000000	43,409936
1828,000000	43,406778
1827,000000	43,386189
1826,000000	43,359256
1825,000000	43,320249
1824,000000	43,247100
1823,000000	43,121631
1822,000000	43,052102
1821,000000	43,050469
1820,000000	43,122412
1819,000000	43,163617
1818,000000	43,114185
1817,000000	42,998070
1816,000000	42,924186
1815,000000	42,895967
1814,000000	42,877092
1813,000000	42,827329
1812,000000	42,796303
1811,000000	42,769173
1810,000000	42,762809
1809,000000	42,707416
1808,000000	42,633501
1807,000000	42,572003
1806,000000	42,564341
1805,000000	42,549695
1804,000000	42,523281
1803,000000	42,443546
1802,000000	42,407388
1801,000000	42,369699
1800,000000	43,123038
1799,000000	43,080984
1798,000000	43,045509
1797,000000	43,014845
1796,000000	42,986264
1795,000000	42,958056
1794,000000	42,926628
1793,000000	42,887245
1792,000000	42,851615
1791,000000	42,818237
1790,000000	42,787196
1789,000000	42,755008
1788,000000	42,721469
1787,000000	42,689531
1786,000000	42,658577
1785,000000	42,625153
1784,000000	42,595721
1783,000000	42,560993
1782,000000	42,532724
1781,000000	42,503364
1780,000000	42,473831
1779,000000	42,445016
1778,000000	42,414724
1777,000000	42,383185
1776,000000	42,350675
1775,000000	42,323401
1774,000000	42,289070
1773,000000	42,251128
1772,000000	42,219641
1771,000000	42,184652
1770,000000	42,151738
1769,000000	42,119427
1768,000000	42,089383
1767,000000	42,052437
1766,000000	42,017287
1765,000000	41,987376
1764,000000	41,957900
1763,000000	41,933201
1762,000000	41,906693
1761,000000	41,881759
1760,000000	41,850371
1759,000000	41,823302
1758,000000	41,793568
1757,000000	41,767703
1756,000000	41,740434
1755,000000	41,717890
1754,000000	41,695608
1753,000000	41,670317
1752,000000	41,637569
1751,000000	41,611060
1750,000000	41,589794
1749,000000	41,567971
1748,000000	41,536945
1747,000000	41,503657
1746,000000	41,473820
1745,000000	41,448729
1744,000000	41,425327
1743,000000	41,397964
1742,000000	41,371274
1741,000000	41,346690
1740,000000	41,322302
1739,000000	41,306984
1738,000000	41,290586
1737,000000	41,266870
1736,000000	41,244237
1735,000000	41,219167
1734,000000	41,190537
1733,000000	41,163122
1732,000000	41,151419
1731,000000	41,139908
1730,000000	41,113402
1729,000000	41,092759
1728,000000	41,109995
1727,000000	41,139486
1726,000000	41,100455
1725,000000	41,071667
1724,000000	41,049848
1723,000000	41,027658
1722,000000	41,007995
1721,000000	40,988552
1720,000000	40,966531
1719,000000	40,947112
1718,000000	40,924682
1717,000000	40,907722
1716,000000	40,893278
1715,000000	40,875157
1714,000000	40,855606
1713,000000	40,834341
1712,000000	40,813093
1711,000000	40,793183
1710,000000	40,777505
1709,000000	40,762214
1708,000000	40,743343
1707,000000	40,723264
1706,000000	40,704243
1705,000000	40,689112
1704,000000	40,674625
1703,000000	40,658050
1702,000000	40,642379
1701,000000	40,625802
1700,000000	40,610669
1699,000000	40,594890
1698,000000	40,578035
1697,000000	40,563100
1696,000000	40,546186
1695,000000	40,526021
1694,000000	40,502917
1693,000000	40,487804
1692,000000	40,476681
1691,000000	40,466374
1690,000000	40,455308
1689,000000	40,445208
1688,000000	40,434861
1687,000000	40,422728
1686,000000	40,410188
1685,000000	40,398028
1684,000000	40,387331
1683,000000	40,377392
1682,000000	40,365245
1681,000000	40,349481
1680,000000	40,336180
1679,000000	40,325140
1678,000000	40,315507
1677,000000	40,306216
1676,000000	40,297341
1675,000000	40,288667
1674,000000	40,278200
1673,000000	40,269290
1672,000000	40,262002
1671,000000	40,259329
1670,000000	40,265996
1669,000000	40,271611
1668,000000	40,263706
1667,000000	40,254906
1666,000000	40,250534
1665,000000	40,249493
1664,000000	40,246808
1663,000000	40,242194
1662,000000	40,238059
1661,000000	40,233450
1660,000000	40,227184
1659,000000	40,216779
1658,000000	40,208770
1657,000000	40,202567
1656,000000	40,195851
1655,000000	40,188772
1654,000000	40,179569
1653,000000	40,169678
1652,000000	40,162085
1651,000000	40,154287
1650,000000	40,146305
1649,000000	40,137406
1648,000000	40,130549
1647,000000	40,126606
1646,000000	40,119502
1645,000000	40,112788
1644,000000	40,106120
1643,000000	40,096726
1642,000000	40,087610
1641,000000	40,077165
1640,000000	40,068527
1639,000000	40,062496
1638,000000	40,055686
1637,000000	40,047913
1636,000000	40,041675
1635,000000	40,035895
1634,000000	40,028030
1633,000000	40,019245
1632,000000	40,009245
1631,000000	40,000229
1630,000000	39,994437
1629,000000	39,986948
1628,000000	39,974694
1627,000000	39,963469
1626,000000	39,954327
1625,000000	39,946925
1624,000000	39,940944
1623,000000	39,930908
1622,000000	39,922084
1621,000000	39,912181
1620,000000	39,902599
1619,000000	39,895427
1618,000000	39,884988
1617,000000	39,869402
1616,000000	39,855643
1615,000000	39,846706
1614,000000	39,835077
1613,000000	39,821283
1612,000000	39,811394
1611,000000	39,798855
1610,000000	39,786107
1609,000000	39,772838
1608,000000	39,760613
1607,000000	39,745689
1606,000000	39,729327
1605,000000	39,716814
1604,000000	39,700968
1603,000000	39,684687
1602,000000	39,670730
1601,000000	39,657854
1600,000000	39,647262
1599,000000	39,636436
1598,000000	39,627607
1597,000000	39,610197
1596,000000	39,589815
1595,000000	39,573215
1594,000000	39,560313
1593,000000	39,545189
1592,000000	39,527737
1591,000000	39,511759
1590,000000	39,495305
1589,000000	39,475020
1588,000000	39,452374
1587,000000	39,431178
1586,000000	39,413027
1585,000000	39,393139
1584,000000	39,373604
1583,000000	39,355888
1582,000000	39,335247
1581,000000	39,310301
1580,000000	39,285429
1579,000000	39,267277
1578,000000	39,250932
1577,000000	39,231425
1576,000000	39,207263
1575,000000	39,183713
1574,000000	39,161395
1573,000000	39,139036
1572,000000	39,119060
1571,000000	39,097678
1570,000000	39,073139
1569,000000	39,050636
1568,000000	39,020071
1567,000000	38,990157
1566,000000	38,962515
1565,000000	38,935436
1564,000000	38,909649
1563,000000	38,886061
1562,000000	38,862732
1561,000000	38,841156
1560,000000	38,815567
1559,000000	38,788324
1558,000000	38,759753
1557,000000	38,732375
1556,000000	38,706350
1555,000000	38,679755
1554,000000	38,650657
1553,000000	38,617428
1552,000000	38,588304
1551,000000	38,562449
1550,000000	38,536419
1549,000000	38,510532
1548,000000	38,484962
1547,000000	38,457104
1546,000000	38,427407
1545,000000	38,400279
1544,000000	38,366928
1543,000000	38,335229
1542,000000	38,306617
1541,000000	38,278519
1540,000000	38,253446
1539,000000	38,224426
1538,000000	38,194203
1537,000000	38,171740
1536,000000	38,142452
1535,000000	38,113994
1534,000000	38,082630
1533,000000	38,047523
1532,000000	38,019429
1531,000000	37,992556
1530,000000	37,964032
1529,000000	37,935467
1528,000000	37,903636
1527,000000	37,874703
1526,000000	37,850791
1525,000000	37,825347
1524,000000	37,795333
1523,000000	37,763914
1522,000000	37,741415
1521,000000	37,715561
1520,000000	37,688211
1519,000000	37,657806
1518,000000	37,628713
1517,000000	37,599714
1516,000000	37,573308
1515,000000	37,547778
1514,000000	37,518704
1513,000000	37,489834
1512,000000	37,461981
1511,000000	37,437043
1510,000000	37,412379
1509,000000	37,387193
1508,000000	37,356917
1507,000000	37,328488
1506,000000	37,301270
1505,000000	37,279523
1504,000000	37,257628
1503,000000	37,234110
1502,000000	37,207098
1501,000000	37,181013
1500,000000	37,153196
1499,000000	37,126968
1498,000000	37,099144
1497,000000	37,076371
1496,000000	37,053943
1495,000000	37,030352
1494,000000	37,006791
1493,000000	36,982274
1492,000000	36,959507
1491,000000	36,939574
1490,000000	36,923737
1489,000000	36,903099
1488,000000	36,883551
1487,000000	36,866612
1486,000000	36,845591
1485,000000	36,827180
1484,000000	36,805418
1483,000000	36,786767
1482,000000	36,765952
1481,000000	36,747444
1480,000000	36,729068
1479,000000	36,710682
1478,000000	36,690919
1477,000000	36,668675
1476,000000	36,654276
1475,000000	36,639956
1474,000000	36,626014
1473,000000	36,611349
1472,000000	36,595187
1471,000000	36,580670
1470,000000	36,564881
1469,000000	36,549862
1468,000000	36,538880
1467,000000	36,528632
1466,000000	36,512325
1465,000000	36,499091
1464,000000	36,487698
1463,000000	36,473901
1462,000000	36,465400
1461,000000	36,457253
1460,000000	36,452602
1459,000000	36,444265
1458,000000	36,438243
1457,000000	36,433491
1456,000000	36,432017
1455,000000	36,428476
1454,000000	36,428900
1453,000000	36,429268
1452,000000	36,383804
1451,000000	36,377919
1450,000000	36,374836
1449,000000	36,373802
1448,000000	36,371910
1447,000000	36,364756
1446,000000	36,355080
1445,000000	36,352946
1444,000000	36,353311
1443,000000	36,351553
1442,000000	36,349763
1441,000000	36,348097
1440,000000	36,345007
1439,000000	36,343371
1438,000000	36,342737
1437,000000	36,339117
1436,000000	36,337591
1435,000000	36,337731
1434,000000	36,335135
1433,000000	36,334194
1432,000000	36,335945
1431,000000	36,338536
1430,000000	36,339093
1429,000000	36,342014
1428,000000	36,347394
1427,000000	36,350288
1426,000000	36,351566
1425,000000	36,352866
1424,000000	36,353609
1423,000000	36,357184
1422,000000	36,366541
1421,000000	36,378399
1420,000000	36,382308
1419,000000	36,383416
1418,000000	36,397130
1417,000000	36,404738
1416,000000	36,409289
1415,000000	36,411860
1414,000000	36,419669
1413,000000	36,425861
1412,000000	36,431574
1411,000000	36,438808
1410,000000	36,444727
1409,000000	36,450416
1408,000000	36,457381
1407,000000	36,462718
1406,000000	36,468367
1405,000000	36,474068
1404,000000	36,479300
1403,000000	36,485759
1402,000000	36,493906
1401,000000	36,499564
1400,000000	36,506352
1399,000000	36,515795
1398,000000	36,521858
1397,000000	36,526216
1396,000000	36,534420
1395,000000	36,542013
1394,000000	36,549867
1393,000000	36,556797
1392,000000	36,560393
1391,000000	36,568293
1390,000000	36,577233
1389,000000	36,582677
1388,000000	36,590045
1387,000000	36,598691
1386,000000	36,601784
1385,000000	36,603257
1384,000000	36,605303
1383,000000	36,606138
1382,000000	36,608412
1381,000000	36,610779
1380,000000	36,610587
1379,000000	36,610909
1378,000000	36,611657
1377,000000	36,614263
1376,000000	36,616271
1375,000000	36,615866
1374,000000	36,613385
1373,000000	36,612558
1372,000000	36,612895
1371,000000	36,610021
1370,000000	36,610137
1369,000000	36,613097
1368,000000	36,615426
1367,000000	36,616235
1366,000000	36,615721
1365,000000	36,618670
1364,000000	36,620813
1363,000000	36,617777
1362,000000	36,612026
1361,000000	36,607539
1360,000000	36,604448
1359,000000	36,597687
1358,000000	36,589111
1357,000000	36,581924
1356,000000	36,575928
1355,000000	36,567964
1354,000000	36,559894
1353,000000	36,551950
1352,000000	36,540752
1351,000000	36,527741
1350,000000	36,517045
1349,000000	36,508378
1348,000000	36,495258
1347,000000	36,479308
1346,000000	36,466389
1345,000000	36,448996
1344,000000	36,429827
1343,000000	36,417798
1342,000000	36,409612
1341,000000	36,400820
1340,000000	36,423562
1339,000000	36,405877
1338,000000	36,324679
1337,000000	36,316337
1336,000000	36,337336
1335,000000	36,328783
1334,000000	36,319815
1333,000000	36,310595
1332,000000	36,299570
1331,000000	36,283994
1330,000000	36,266507
1329,000000	36,252852
1328,000000	36,240607
1327,000000	36,227487
1326,000000	36,215718
1325,000000	36,201334
1324,000000	36,183967
1323,000000	36,167071
1322,000000	36,154188
1321,000000	36,181375
1320,000000	36,161921
1319,000000	36,128358
1318,000000	36,117318
1317,000000	36,103440
1316,000000	36,131351
1315,000000	36,108858
1314,000000	36,071982
1313,000000	36,061019
1312,000000	36,051751
1311,000000	36,041891
1310,000000	36,072614
1309,000000	36,044454
1308,000000	36,008861
1307,000000	35,998346
1306,000000	35,985892
1305,000000	35,972439
1304,000000	35,961961
1303,000000	35,954294
1302,000000	35,948093
1301,000000	35,940390
1300,000000	35,933615
1299,000000	35,926286
1298,000000	35,916772
1297,000000	35,906388
1296,000000	35,898511
1295,000000	35,891258
1294,000000	35,923675
1293,000000	35,894329
1292,000000	35,870432
1291,000000	35,863951
1290,000000	35,858366
1289,000000	35,853991
1288,000000	35,851154
1287,000000	35,893085
1286,000000	35,860056
1285,000000	35,835772
1284,000000	35,833925
1283,000000	35,832397
1282,000000	35,832462
1281,000000	35,833540
1280,000000	35,835891
1279,000000	35,836168
1278,000000	35,837609
1277,000000	35,840403
1276,000000	35,844416
1275,000000	35,849875
1274,000000	35,850240
1273,000000	35,854574
1272,000000	35,863298
1271,000000	35,871964
1270,000000	35,882860
1269,000000	35,893215
1268,000000	35,903996
1267,000000	35,916757
1266,000000	35,929884
1265,000000	35,992429
1264,000000	35,975642
1263,000000	35,978224
1262,000000	35,992238
1261,000000	36,005833
1260,000000	36,020498
1259,000000	36,038003
1258,000000	36,057753
1257,000000	36,076144
1256,000000	36,096716
1255,000000	36,115694
1254,000000	36,136275
1253,000000	36,155849
1252,000000	36,173944
1251,000000	36,189616
1250,000000	36,206774
1249,000000	36,229098
1248,000000	36,253547
1247,000000	36,280393
1246,000000	36,302572
1245,000000	36,326822
1244,000000	36,351565
1243,000000	36,374556
1242,000000	36,395156
1241,000000	36,418904
1240,000000	36,443479
1239,000000	36,526523
1238,000000	36,512636
1237,000000	36,532614
1236,000000	36,562939
1235,000000	36,590440
1234,000000	36,619238
1233,000000	36,654492
1232,000000	36,685175
1231,000000	36,712839
1230,000000	36,747259
1229,000000	36,790206
1228,000000	36,822798
1227,000000	36,850529
1226,000000	36,940299
1225,000000	36,929951
1224,000000	36,959808
1223,000000	36,990127
1222,000000	37,021753
1221,000000	37,056747
1220,000000	37,151275
1219,000000	37,145933
1218,000000	37,172390
1217,000000	37,202347
1216,000000	37,233535
1215,000000	37,262456
1214,000000	37,294871
1213,000000	37,324586
1212,000000	37,356317
1211,000000	37,386808
1210,000000	37,417518
1209,000000	37,444619
1208,000000	37,472529
1207,000000	37,500274
1206,000000	37,519947
1205,000000	37,537925
1204,000000	37,560695
1203,000000	37,599753
1202,000000	37,635294
1201,000000	37,649080
1200,000000	37,712630
1199,000000	37,737616
1198,000000	37,758463
1197,000000	37,779314
1196,000000	37,803279
1195,000000	37,821614
1194,000000	37,845770
1193,000000	37,863223
1192,000000	37,880966
1191,000000	37,859262
1190,000000	37,908512
1189,000000	37,931058
1188,000000	37,948277
1187,000000	37,962255
1186,000000	37,975212
1185,000000	37,989388
1184,000000	38,005793
1183,000000	38,019166
1182,000000	38,030876
1181,000000	38,044558
1180,000000	38,059224
1179,000000	38,075668
1178,000000	38,087759
1177,000000	38,097377
1176,000000	38,102018
1175,000000	38,108820
1174,000000	38,118532
1173,000000	38,127892
1172,000000	38,135549
1171,000000	38,142133
1170,000000	38,149091
1169,000000	38,158913
1168,000000	38,168855
1167,000000	38,173975
1166,000000	38,181453
1165,000000	38,183894
1164,000000	38,184438
1163,000000	38,192954
1162,000000	38,204225
1161,000000	38,211680
1160,000000	38,220300
1159,000000	38,230246
1158,000000	38,237619
1157,000000	38,243225
1156,000000	38,247790
1155,000000	38,256159
1154,000000	38,262589
1153,000000	38,266969
1152,000000	38,271302
1151,000000	38,274518
1150,000000	38,283131
1149,000000	38,295128
1148,000000	38,303269
1147,000000	38,309514
1146,000000	38,316219
1145,000000	38,323973
1144,000000	38,330060
1143,000000	38,341488
1142,000000	38,356073
1141,000000	38,369720
1140,000000	38,383551
1139,000000	38,398672
1138,000000	38,411874
1137,000000	38,430400
1136,000000	38,448236
1135,000000	38,463148
1134,000000	38,482361
1133,000000	38,501554
1132,000000	38,521531
1131,000000	38,541563
1130,000000	38,568009
1129,000000	38,591680
1128,000000	38,614503
1127,000000	38,639190
1126,000000	38,667579
1125,000000	38,691412
1124,000000	38,721031
1123,000000	38,749870
1122,000000	38,780083
1121,000000	38,814886
1120,000000	38,849973
1119,000000	38,888402
1118,000000	38,926201
1117,000000	38,961903
1116,000000	38,998257
1115,000000	39,032600
1114,000000	39,068354
1113,000000	39,104687
1112,000000	39,146507
1111,000000	39,185918
1110,000000	39,229502
1109,000000	39,276693
1108,000000	39,325280
1107,000000	39,373119
1106,000000	39,422044
1105,000000	39,472468
1104,000000	39,522403
1103,000000	39,573721
1102,000000	39,624464
1101,000000	39,678627
1100,000000	39,730708
1099,000000	39,781609
1098,000000	39,832758
1097,000000	39,888883
1096,000000	39,948343
1095,000000	40,004625
1094,000000	40,059989
1093,000000	40,116742
1092,000000	40,171065
1091,000000	40,228254
1090,000000	40,286111
1089,000000	40,345268
1088,000000	40,403910
1087,000000	40,458379
1086,000000	40,507897
1085,000000	40,561062
1084,000000	40,623024
1083,000000	40,681745
1082,000000	40,740762
1081,000000	40,798863
1080,000000	40,857198
1079,000000	40,912642
1078,000000	40,966988
1077,000000	41,020989
1076,000000	41,077371
1075,000000	41,132626
1074,000000	41,181676
1073,000000	41,231449
1072,000000	41,283792
1071,000000	41,333380
1070,000000	41,380425
1069,000000	41,431346
1068,000000	41,481073
1067,000000	41,528512
1066,000000	41,577476
1065,000000	41,623538
1064,000000	41,661017
1063,000000	41,697827
1062,000000	41,736841
1061,000000	41,775888
1060,000000	41,814646
1059,000000	41,854386
1058,000000	41,893042
1057,000000	41,930255
1056,000000	41,963117
1055,000000	41,991309
1054,000000	42,020660
1053,000000	42,055266
1052,000000	42,088336
1051,000000	42,113735
1050,000000	42,136030
1049,000000	42,158700
1048,000000	42,186565
1047,000000	42,214605
1046,000000	42,237264
1045,000000	42,260234
1044,000000	42,282906
1043,000000	42,302620
1042,000000	42,320952
1041,000000	42,338689
1040,000000	42,357030
1039,000000	42,376948
1038,000000	42,395615
1037,000000	42,411815
1036,000000	42,431020
1035,000000	42,452417
1034,000000	42,470482
1033,000000	42,485325
1032,000000	42,503399
1031,000000	42,521347
1030,000000	42,538514
1029,000000	42,558143
1028,000000	42,577841
1027,000000	42,596316
1026,000000	42,614388
1025,000000	42,634066
1024,000000	42,655000
1023,000000	42,675100
1022,000000	42,696155
1021,000000	42,719799
1020,000000	42,747064
1019,000000	42,778639
1018,000000	42,812979
1017,000000	42,844155
1016,000000	42,870428
1015,000000	42,895659
1014,000000	42,925882
1013,000000	42,958359
1012,000000	42,993138
1011,000000	43,029043
1010,000000	43,066251
1009,000000	43,101771
1008,000000	43,139875
1007,000000	43,182092
1006,000000	43,224836
1005,000000	43,267540
1004,000000	43,310120
1003,000000	43,354006
1002,000000	43,405955
1001,000000	43,464773
1000,000000	43,513704
999,000000	43,558742
998,000000	43,612477
997,000000	43,669444
996,000000	43,724026
995,000000	43,782287
994,000000	43,843783
993,000000	43,907374
992,000000	43,967337
991,000000	44,027647
990,000000	44,092042
989,000000	44,160783
988,000000	44,227801
987,000000	44,291929
986,000000	44,355535
985,000000	44,418944
984,000000	44,483791
983,000000	44,552151
982,000000	44,620334
981,000000	44,686959
980,000000	44,755357
979,000000	44,821068
978,000000	44,886816
977,000000	44,950992
976,000000	45,016854
975,000000	45,079424
974,000000	45,141608
973,000000	45,206039
972,000000	45,270026
971,000000	45,331421
970,000000	45,389077
969,000000	45,445828
968,000000	45,499500
967,000000	45,552823
966,000000	45,609143
965,000000	45,665977
964,000000	45,724025
963,000000	45,776613
962,000000	45,824836
961,000000	45,870374
960,000000	45,915790
959,000000	45,959583
958,000000	46,009664
957,000000	46,055092
956,000000	46,095499
955,000000	46,128845
954,000000	46,152289
953,000000	46,175956
952,000000	46,207516
951,000000	46,244898
950,000000	46,275405
949,000000	46,300655
948,000000	46,324641
947,000000	46,345911
946,000000	46,364774
945,000000	46,386860
944,000000	46,405991
943,000000	46,427283
942,000000	46,447434
941,000000	46,464193
940,000000	46,482156
939,000000	46,499951
938,000000	46,511452
937,000000	46,533737
936,000000	46,544528
935,000000	46,553550
934,000000	46,572374
933,000000	46,594447
932,000000	46,610617
931,000000	46,625956
930,000000	46,640102
929,000000	46,652494
928,000000	46,664586
927,000000	46,681791
926,000000	46,701221
925,000000	46,719743
924,000000	46,740705
923,000000	46,759511
922,000000	46,776192
921,000000	46,804933
920,000000	46,832080
919,000000	46,855937
918,000000	46,883328
917,000000	46,909605
916,000000	46,937680
915,000000	46,965398
914,000000	46,995215
913,000000	47,025595
912,000000	47,068280
911,000000	47,104496
910,000000	47,139566
909,000000	47,177603
908,000000	47,216362
907,000000	47,259714
906,000000	47,305608
905,000000	47,352769
904,000000	47,396885
903,000000	47,439881
902,000000	47,486675
901,000000	47,533862
900,000000	47,574638
899,000000	47,615635
898,000000	47,664542
897,000000	47,711189
896,000000	47,763168
895,000000	47,808815
894,000000	47,856931
893,000000	47,909411
892,000000	47,962298
891,000000	48,006630
890,000000	48,055124
889,000000	48,102621
888,000000	48,148930
887,000000	48,195184
886,000000	48,240097
885,000000	48,277851
884,000000	48,315537
883,000000	48,352122
882,000000	48,384460
881,000000	48,416616
880,000000	48,452041
879,000000	48,480748
878,000000	48,515968
877,000000	48,545823
876,000000	48,565122
875,000000	48,589995
874,000000	48,603791
873,000000	48,622393
872,000000	48,634062
871,000000	48,647056
870,000000	48,664118
869,000000	48,682309
868,000000	48,691713
867,000000	48,700757
866,000000	48,702922
865,000000	48,706667
864,000000	48,715405
863,000000	48,709661
862,000000	48,706523
861,000000	48,703495
860,000000	48,999623
859,000000	48,993580
858,000000	49,056141
857,000000	48,970201
856,000000	49,044975
855,000000	48,981083
854,000000	48,994137
853,000000	49,047348
852,000000	49,005792
851,000000	49,017153
850,000000	48,987898
849,000000	48,964172
848,000000	48,968668
847,000000	48,981005
846,000000	48,962657
845,000000	48,964268
844,000000	48,974033
843,000000	48,980900
842,000000	48,987959
841,000000	49,007002
840,000000	49,003028
839,000000	49,018890
838,000000	49,037726
837,000000	49,066066
836,000000	49,090870
835,000000	49,100835
834,000000	49,099076
833,000000	49,105541
832,000000	49,130233
831,000000	49,135790
830,000000	49,159434
829,000000	49,168804
828,000000	49,227702
827,000000	49,245253
826,000000	49,249384
825,000000	49,225858
824,000000	49,280777
823,000000	49,300366
822,000000	49,316986
821,000000	49,340404
820,000000	49,326812
819,000000	49,355343
818,000000	49,356475
817,000000	49,355533
816,000000	49,373196
815,000000	49,376005
814,000000	49,378354
813,000000	49,388162
812,000000	49,388651
811,000000	49,373658
810,000000	49,361222
809,000000	49,367182
808,000000	49,355241
807,000000	49,331350
806,000000	49,310743
805,000000	49,285439
804,000000	49,259670
803,000000	49,225938
802,000000	49,183045
801,000000	49,158290
800,000000	49,118094
799,000000	49,081463
798,000000	49,032690
797,000000	48,991315
796,000000	48,949028
795,000000	48,907498
794,000000	48,866036
793,000000	48,811068
792,000000	48,767730
791,000000	48,713240
790,000000	48,674669
789,000000	48,660524
788,000000	48,595743
787,000000	48,561191
786,000000	48,501337
785,000000	48,474505
784,000000	48,440027
783,000000	48,396040
782,000000	48,359601
781,000000	48,324259
780,000000	48,280937
779,000000	48,249019
778,000000	48,222462
777,000000	48,193447
776,000000	48,168931
775,000000	48,143032
774,000000	48,129321
773,000000	48,092152
772,000000	48,075289
771,000000	48,052489
770,000000	48,028163
769,000000	48,014004
768,000000	47,993093
767,000000	47,984440
766,000000	47,967582
765,000000	47,926521
764,000000	47,911279
763,000000	47,876595
762,000000	47,850635
761,000000	47,819329
760,000000	47,792866
759,000000	47,758902
758,000000	47,725352
757,000000	47,690181
756,000000	47,655227
755,000000	47,600144
754,000000	47,544885
753,000000	47,485460
752,000000	47,426443
751,000000	47,368409
750,000000	47,310293
749,000000	47,243063
748,000000	47,173323
747,000000	47,097333
746,000000	47,009704
745,000000	46,929088
744,000000	46,850501
743,000000	46,759238
742,000000	46,654498
741,000000	46,563694
740,000000	46,472161
739,000000	46,375514
738,000000	46,285611
737,000000	46,184428
736,000000	46,088709
735,000000	45,993261
734,000000	45,897289
733,000000	45,809629
732,000000	45,719836
731,000000	45,634045
730,000000	45,543654
729,000000	45,453993
728,000000	45,373804
727,000000	45,280945
726,000000	45,197387
725,000000	45,127387
724,000000	45,050184
723,000000	44,972425
722,000000	44,906008
721,000000	44,839260
720,000000	44,767982
719,000000	44,704157
718,000000	44,642403
717,000000	44,575853
716,000000	44,510278
715,000000	44,441464
714,000000	44,372326
713,000000	44,301056
712,000000	44,237999
711,000000	44,179179
710,000000	44,109155
709,000000	44,040774
708,000000	43,967831
707,000000	43,885868
706,000000	43,802670
705,000000	43,713565
704,000000	43,624622
703,000000	43,536282
702,000000	43,444119
701,000000	43,345596
700,000000	43,238476
699,000000	43,125732
698,000000	43,013004
697,000000	42,898968
696,000000	42,781500
695,000000	42,657459
694,000000	42,533846
693,000000	42,417292
692,000000	42,295129
691,000000	42,165601
690,000000	42,044266
689,000000	41,926594
688,000000	41,800363
687,000000	41,676011
686,000000	41,552870
685,000000	41,427551
684,000000	41,308580
683,000000	41,192982
682,000000	41,083293
681,000000	40,975751
680,000000	40,871200
679,000000	40,761572
678,000000	40,661420
677,000000	40,564356
676,000000	40,468449
675,000000	40,375961
674,000000	40,287349
673,000000	40,190690
672,000000	40,096598
671,000000	40,003365
670,000000	39,913415
669,000000	39,830052
668,000000	39,742921
667,000000	39,654438
666,000000	39,561005
665,000000	39,461828
664,000000	39,365694
663,000000	39,269670
662,000000	39,167816
661,000000	39,067887
660,000000	38,964326
659,000000	38,859481
658,000000	38,756543
657,000000	38,649026
656,000000	38,532953
655,000000	38,410834
654,000000	38,298844
653,000000	38,188491
652,000000	38,068446
651,000000	37,955914
650,000000	37,836337
649,000000	37,716909
648,000000	37,599612
647,000000	37,493927
646,000000	37,383492
645,000000	37,273637
644,000000	37,165932
643,000000	37,062347
642,000000	36,960931
641,000000	36,868983
640,000000	36,780317
639,000000	36,689135
638,000000	36,602189
637,000000	36,518485
636,000000	36,446491
635,000000	36,372739
634,000000	36,298469
633,000000	36,229766
632,000000	36,157997
631,000000	36,097047
630,000000	36,033029
629,000000	35,969133
628,000000	35,907414
627,000000	35,832783
626,000000	35,770291
625,000000	35,705321
624,000000	35,633629
623,000000	35,559022
622,000000	35,488565
621,000000	35,419405
620,000000	35,350983
619,000000	35,279073
618,000000	35,211458
617,000000	35,140211
616,000000	35,069585
615,000000	34,997901
614,000000	34,928952
613,000000	34,871363
612,000000	34,811097
611,000000	34,748423
610,000000	34,692601
609,000000	34,639626
608,000000	34,597506
607,000000	34,555168
606,000000	34,522545
605,000000	34,488471
604,000000	34,473693
603,000000	34,450450
602,000000	34,436303
601,000000	34,425792
600,000000	34,427091
599,000000	34,416392
598,000000	34,425484
597,000000	34,438071
596,000000	34,439907
595,000000	34,452554
594,000000	34,460056
593,000000	34,471705
592,000000	34,484528
591,000000	34,490146
590,000000	34,497726
589,000000	34,505236
588,000000	34,505950
587,000000	34,513481
586,000000	34,511959
585,000000	34,512444
584,000000	34,528701
583,000000	34,535019
582,000000	34,543799
581,000000	34,554649
580,000000	34,572053
579,000000	34,593888
578,000000	34,622881
577,000000	34,660409
576,000000	34,696199
575,000000	34,755462
574,000000	34,798400
573,000000	34,858516
572,000000	34,927414
571,000000	34,996194
570,000000	35,070942
569,000000	35,149288
568,000000	35,247621
567,000000	35,335728
566,000000	35,427707
565,000000	35,513014
564,000000	35,604924
563,000000	35,688578
562,000000	35,786314
561,000000	35,872188
560,000000	35,960492
559,000000	36,031484
558,000000	36,114759
557,000000	36,187884
556,000000	36,258925
555,000000	36,337054
554,000000	36,412461
553,000000	36,487660
552,000000	36,554486
551,000000	36,649093
550,000000	36,734739
549,000000	36,816731
548,000000	36,875393
547,000000	36,969378
546,000000	37,055470
545,000000	37,169302
544,000000	37,283230
543,000000	37,405563
542,000000	37,542330
541,000000	37,671028
540,000000	37,795010
539,000000	37,921104
538,000000	38,048228
537,000000	38,172884
536,000000	38,279279
535,000000	38,385828
534,000000	38,485985
533,000000	38,575567
532,000000	38,653322
531,000000	38,736470
530,000000	38,808481
529,000000	38,876698
528,000000	38,933185
527,000000	39,002051
526,000000	39,073732
525,000000	39,136657
524,000000	39,194986
523,000000	39,281439
522,000000	39,413063
521,000000	39,480797
520,000000	39,552083
519,000000	39,615151
518,000000	39,668098
517,000000	39,723978
516,000000	39,759584
515,000000	39,781770
514,000000	39,797217
513,000000	39,797714
512,000000	39,780740
511,000000	39,739799
510,000000	39,694287
509,000000	39,635091
508,000000	39,574192
507,000000	39,497886
506,000000	39,420393
505,000000	39,334549
504,000000	39,247737
503,000000	39,164518
502,000000	39,082281
501,000000	38,996543
500,000000	38,907442
499,000000	38,814954
498,000000	38,728351
497,000000	38,620762
496,000000	38,504589
495,000000	38,396535
494,000000	38,257928
493,000000	38,114445
492,000000	37,956593
491,000000	37,779437
490,000000	37,595704
489,000000	37,408225
488,000000	37,195999
487,000000	36,991083
486,000000	36,782917
485,000000	36,579675
484,000000	36,386936
483,000000	36,194113
482,000000	36,004884
481,000000	35,828694
480,000000	35,660212
479,000000	35,480402
478,000000	35,286184
477,000000	35,090167
476,000000	34,876229
475,000000	34,654852
474,000000	34,422186
473,000000	34,181134
472,000000	33,923460
471,000000	33,657122
470,000000	33,393076
469,000000	33,130217
468,000000	32,873945
467,000000	32,627649
466,000000	32,387476
465,000000	32,155395
464,000000	31,931463
463,000000	31,726367
462,000000	31,529452
461,000000	31,340975
460,000000	31,152638
459,000000	30,962543
458,000000	30,776954
457,000000	30,602409
456,000000	30,440538
455,000000	30,274852
454,000000	30,132659
453,000000	30,018242
452,000000	29,921984
451,000000	29,851575
450,000000	29,805521
449,000000	29,783496
448,000000	29,775874
447,000000	29,781205
446,000000	29,804880
445,000000	29,840611
444,000000	29,878584
443,000000	29,922050
442,000000	29,970837
441,000000	30,024811
440,000000	30,084087
439,000000	30,149297
438,000000	30,222869
437,000000	30,293031
436,000000	30,355178
435,000000	30,433286
434,000000	30,497836
433,000000	30,534110
432,000000	30,540256
431,000000	30,500164
430,000000	30,405999
429,000000	30,258921
428,000000	30,043836
427,000000	29,747947
426,000000	29,359384
425,000000	28,872738
424,000000	28,265513
423,000000	27,531943
422,000000	26,697496
421,000000	25,747670
420,000000	24,686535
419,000000	23,584308
418,000000	22,469076
417,000000	21,366306
416,000000	20,329746
415,000000	19,385192
414,000000	18,548339
413,000000	17,825856
412,000000	17,217721
411,000000	16,711665
410,000000	16,302571
409,000000	15,974680
408,000000	15,712472
407,000000	15,513666
406,000000	15,352449
405,000000	15,210054
404,000000	15,088052
403,000000	14,995384
402,000000	14,916238
401,000000	14,839961
400,000000	14,764399
399,000000	14,685993
398,000000	14,604911
397,000000	14,519449
396,000000	14,427859
395,000000	14,324745
394,000000	14,218560
393,000000	14,104112
392,000000	13,995337
391,000000	13,886168
390,000000	13,774802
389,000000	13,672342
388,000000	13,574812
387,000000	13,488564
386,000000	13,411982
385,000000	13,341132
384,000000	13,280439
383,000000	13,222776
382,000000	13,171251
381,000000	13,122755
380,000000	13,081854
379,000000	12,945805
378,000000	12,826047
377,000000	12,778338
376,000000	12,729415
375,000000	12,671104
374,000000	12,635122
373,000000	12,586570
372,000000	12,517033
371,000000	12,436432
370,000000	12,347652
369,000000	12,263189
368,000000	12,155597
367,000000	12,030681
366,000000	11,909816
365,000000	11,775345
364,000000	11,624783
363,000000	11,489420
362,000000	11,327632
361,000000	11,150660
360,000000	10,977552
359,000000	10,790482
358,000000	10,581330
357,000000	10,371345
356,000000	10,163306
355,000000	9,945604
354,000000	9,720920
353,000000	9,495044
352,000000	9,266181
351,000000	9,043801
350,000000	8,826752
349,000000	8,624519
348,000000	8,428204
347,000000	8,220182
346,000000	8,040683
345,000000	7,871661
344,000000	7,687235
343,000000	7,541103
342,000000	7,380984
341,000000	7,220367
340,000000	7,079257
339,000000	6,928739
338,000000	6,794877
337,000000	6,664215
336,000000	6,536251
335,000000	6,417754
334,000000	6,277989
333,000000	6,164460
332,000000	6,039377
331,000000	5,925799
330,000000	5,810893
329,000000	5,692139
328,000000	5,575407
327,000000	5,442030
326,000000	5,304654
325,000000	5,169841
324,000000	5,054282
323,000000	4,945971
322,000000	4,828736
321,000000	4,741661
320,000000	4,641046
319,000000	4,621695
318,000000	4,541661
317,000000	4,456275
316,000000	4,378954
315,000000	4,303234
314,000000	4,234768
313,000000	4,175080
312,000000	4,111286
311,000000	4,053575
310,000000	3,999626
309,000000	3,958546
308,000000	3,914441
307,000000	3,877042
306,000000	3,849597
305,000000	3,822087
304,000000	3,791733
303,000000	3,760572
302,000000	3,729162
301,000000	3,691558
300,000000	3,648798
299,000000	3,601421
298,000000	3,545548
297,000000	3,486289
296,000000	3,415321
295,000000	3,343747
294,000000	3,267925
293,000000	3,190617
292,000000	3,107367
291,000000	3,012791
290,000000	2,908938
289,000000	2,798008
288,000000	2,671112
287,000000	2,534587
286,000000	2,387017
285,000000	2,221162
284,000000	2,042304
283,000000	1,854355
282,000000	1,666814
281,000000	1,472917
280,000000	1,283129
279,000000	1,092297
278,000000	0,918690
277,000000	0,753686
276,000000	0,609120
275,000000	0,488308
274,000000	0,389593
273,000000	0,310729
272,000000	0,257965
271,000000	0,222398
270,000000	0,202194
269,000000	0,191931
268,000000	0,186528
267,000000	0,185806
266,000000	0,181770
265,000000	0,177742
264,000000	0,174075
263,000000	0,168955
262,000000	0,168585
261,000000	0,167320
260,000000	0,168318
259,000000	0,168102
258,000000	0,168294
257,000000	0,167015
256,000000	0,165604
255,000000	0,165662
254,000000	0,166924
253,000000	0,167549
252,000000	0,164565
251,000000	0,162263
250,000000	0,166630
249,000000	0,163042
248,000000	0,160087
247,000000	0,161679
246,000000	0,162449
245,000000	0,163296
244,000000	0,162537
243,000000	0,162891
242,000000	0,165119
241,000000	0,164455
240,000000	0,166109
239,000000	0,168008
238,000000	0,168433
237,000000	0,170367
236,000000	0,169823
235,000000	0,171397
234,000000	0,171600
233,000000	0,172808
232,000000	0,173135
231,000000	0,170971
230,000000	0,174162
229,000000	0,172682
228,000000	0,171532
227,000000	0,171548
226,000000	0,173147
225,000000	0,173181
224,000000	0,170230
223,000000	0,171314
222,000000	0,172472
221,000000	0,172236
220,000000	0,172167
219,000000	0,171827
218,000000	0,172669
217,000000	0,171848
216,000000	0,170775
215,000000	0,171273
214,000000	0,173260
213,000000	0,171986
212,000000	0,175177
211,000000	0,177104
210,000000	0,177723
209,000000	0,180219
208,000000	0,180259
207,000000	0,182139
206,000000	0,183658
205,000000	0,185549
204,000000	0,184850
203,000000	0,186670
202,000000	0,190953
201,000000	0,195518
200,000000	0,197325
