PE UV       SUBTECH     SPECTRUM    ASCII       PEDS        4.00        
   -1
sampleA.Sample.asc
22/01/27
15:11:44.00
22/01/27
15:11:44.00
Administrator

200,000000
1
Lambda 1050
1050L1808311
PerkinElmer UV WinLab 6.4.0.973 / 2.02.11 Lambda 900 UV/VIS/NIR, May 23 2018 11:23:04

0
0
3350/servo 1800,8/servo 860,8/2
0
0
UV/VIS
1
1
1
CommonBeamDepol,RBeamAtt,SBeamAtt,uv/vis/nir detector, TDS WB InGaAs Detector
0
0
0
0
Program
Program
3350/servo 1800,8/servo 860,8/2
3350/0,2 1800,8/0,2 860,8/0,2
3350/0,2 1800,8/0,2 860,8/0,2
0
3350/1,00 1800,8/1,00
 
 
 
0
 
860,8
319,2
1800,8 860,8
Front
100
on
S:100 R:100
 
0
0
0
 
0
 
 
 
0
 
 
0
0
0
0
0
 
 
 
 
0
0


0
0
#HDR
-1
-1
#GR
nm
%T
1.0
0.0
2000,000000
-1,000000
1801
8
57,154286
0,144688
#DATA
2000,000000	57,154286
1999,000000	57,137006
1998,000000	57,089254
1997,000000	57,079351
1996,000000	57,030729
1995,000000	56,997360
1994,000000	56,956364
1993,000000	56,945338
1992,000000	56,898755
1991,000000	56,875114
1990,000000	56,812511
1989,000000	56,778345
1988,000000	56,724162
1987,000000	56,724173
1986,000000	56,674469
1985,000000	56,662611
1984,000000	56,611748
1983,000000	56,598833
1982,000000	56,561339
1981,000000	56,527023
1980,000000	56,494153
1979,000000	56,472144
1978,000000	56,411576
1977,000000	56,414458
1976,000000	56,362369
1975,000000	56,342507
1974,000000	56,291906
1973,000000	56,263742
1972,000000	56,234036
1971,000000	56,216896
1970,000000	56,152806
1969,000000	56,135438
1968,000000	56,093199
1967,000000	56,064054
1966,000000	56,016437
1965,000000	55,998443
1964,000000	55,971847
1963,000000	55,937298
1962,000000	55,891531
1961,000000	55,875650
1960,000000	55,847999
1959,000000	55,807423
1958,000000	55,774533
1957,000000	55,748184
1956,000000	55,722574
1955,000000	55,706974
1954,000000	55,660526
1953,000000	55,623227
1952,000000	55,590835
1951,000000	55,575699
1950,000000	55,527109
1949,000000	55,505622
1948,000000	55,448305
1947,000000	55,428676
1946,000000	55,381976
1945,000000	55,371149
1944,000000	55,335712
1943,000000	55,310278
1942,000000	55,251100
1941,000000	55,221315
1940,000000	55,182732
1939,000000	55,152599
1938,000000	55,128711
1937,000000	55,119311
1936,000000	55,082010
1935,000000	55,066462
1934,000000	55,037727
1933,000000	55,008108
1932,000000	54,946944
1931,000000	54,919412
1930,000000	54,883579
1929,000000	54,843989
1928,000000	54,802263
1927,000000	54,799073
1926,000000	54,758320
1925,000000	54,725673
1924,000000	54,698735
1923,000000	54,665722
1922,000000	54,612006
1921,000000	54,573490
1920,000000	54,527571
1919,000000	54,503983
1918,000000	54,507824
1917,000000	54,500038
1916,000000	54,451143
1915,000000	54,430418
1914,000000	54,398698
1913,000000	54,358795
1912,000000	54,316247
1911,000000	54,301695
1910,000000	54,266581
1909,000000	54,255090
1908,000000	54,247026
1907,000000	54,201497
1906,000000	54,144049
1905,000000	54,124839
1904,000000	54,125289
1903,000000	54,107249
1902,000000	54,084006
1901,000000	54,072480
1900,000000	54,004686
1899,000000	53,958649
1898,000000	53,947648
1897,000000	53,930501
1896,000000	53,892225
1895,000000	53,885431
1894,000000	53,845151
1893,000000	53,800104
1892,000000	53,782511
1891,000000	53,758097
1890,000000	53,721122
1889,000000	53,712766
1888,000000	53,695071
1887,000000	53,655350
1886,000000	53,630906
1885,000000	53,613155
1884,000000	53,574373
1883,000000	53,565818
1882,000000	53,554492
1881,000000	53,521305
1880,000000	53,490715
1879,000000	53,475260
1878,000000	53,446743
1877,000000	53,425118
1876,000000	53,412225
1875,000000	53,402859
1874,000000	53,369549
1873,000000	53,349661
1872,000000	53,326204
1871,000000	53,303725
1870,000000	53,283519
1869,000000	53,264715
1868,000000	53,234029
1867,000000	53,213740
1866,000000	53,198595
1865,000000	53,162572
1864,000000	53,131101
1863,000000	53,106992
1862,000000	53,084280
1861,000000	53,072422
1860,000000	53,044502
1859,000000	53,019758
1858,000000	53,024205
1857,000000	53,019515
1856,000000	52,992086
1855,000000	52,967989
1854,000000	52,933673
1853,000000	52,915055
1852,000000	52,917390
1851,000000	52,908144
1850,000000	52,892009
1849,000000	52,873806
1848,000000	52,846800
1847,000000	52,828693
1846,000000	52,854909
1845,000000	52,871278
1844,000000	52,841029
1843,000000	52,784491
1842,000000	52,709208
1841,000000	52,687076
1840,000000	52,726407
1839,000000	52,752342
1838,000000	52,744915
1837,000000	52,693899
1836,000000	52,644443
1835,000000	52,632328
1834,000000	52,657860
1833,000000	52,666920
1832,000000	52,634025
1831,000000	52,581501
1830,000000	52,563414
1829,000000	52,563432
1828,000000	52,582320
1827,000000	52,577388
1826,000000	52,549152
1825,000000	52,536956
1824,000000	52,512387
1823,000000	52,498428
1822,000000	52,469521
1821,000000	52,430106
1820,000000	52,425887
1819,000000	52,473221
1818,000000	52,498004
1817,000000	52,452955
1816,000000	52,403877
1815,000000	52,372310
1814,000000	52,370078
1813,000000	52,367814
1812,000000	52,366799
1811,000000	52,342403
1810,000000	52,337543
1809,000000	52,319355
1808,000000	52,294180
1807,000000	52,280112
1806,000000	52,284035
1805,000000	52,289778
1804,000000	52,297478
1803,000000	52,265343
1802,000000	52,242152
1801,000000	52,205320
1800,000000	51,550469
1799,000000	51,535117
1798,000000	51,527324
1797,000000	51,524551
1796,000000	51,522522
1795,000000	51,520676
1794,000000	51,512342
1793,000000	51,499310
1792,000000	51,488224
1791,000000	51,474964
1790,000000	51,466366
1789,000000	51,455653
1788,000000	51,443516
1787,000000	51,435227
1786,000000	51,427797
1785,000000	51,416189
1784,000000	51,403911
1783,000000	51,389529
1782,000000	51,380918
1781,000000	51,373235
1780,000000	51,361465
1779,000000	51,347951
1778,000000	51,335241
1777,000000	51,325618
1776,000000	51,319424
1775,000000	51,311299
1774,000000	51,299923
1773,000000	51,284788
1772,000000	51,274263
1771,000000	51,262760
1770,000000	51,253704
1769,000000	51,239604
1768,000000	51,231529
1767,000000	51,217389
1766,000000	51,206847
1765,000000	51,196899
1764,000000	51,184465
1763,000000	51,176991
1762,000000	51,168443
1761,000000	51,156969
1760,000000	51,144208
1759,000000	51,131983
1758,000000	51,120383
1757,000000	51,106507
1756,000000	51,094001
1755,000000	51,087805
1754,000000	51,079426
1753,000000	51,064089
1752,000000	51,045752
1751,000000	51,032654
1750,000000	51,029834
1749,000000	51,022459
1748,000000	51,006950
1747,000000	50,985682
1746,000000	50,963331
1745,000000	50,950141
1744,000000	50,939530
1743,000000	50,926044
1742,000000	50,914429
1741,000000	50,903537
1740,000000	50,890534
1739,000000	50,881785
1738,000000	50,868528
1737,000000	50,852994
1736,000000	50,839963
1735,000000	50,826447
1734,000000	50,807682
1733,000000	50,787256
1732,000000	50,772543
1731,000000	50,758678
1730,000000	50,743369
1729,000000	50,728920
1728,000000	50,716787
1727,000000	50,704331
1726,000000	50,688069
1725,000000	50,670760
1724,000000	50,653947
1723,000000	50,631173
1722,000000	50,612599
1721,000000	50,596469
1720,000000	50,578031
1719,000000	50,561216
1718,000000	50,540610
1717,000000	50,520839
1716,000000	50,505390
1715,000000	50,488702
1714,000000	50,466288
1713,000000	50,442777
1712,000000	50,420804
1711,000000	50,401690
1710,000000	50,384202
1709,000000	50,363690
1708,000000	50,337137
1707,000000	50,308924
1706,000000	50,284616
1705,000000	50,263631
1704,000000	50,239162
1703,000000	50,215261
1702,000000	50,192100
1701,000000	50,168432
1700,000000	50,147224
1699,000000	50,121907
1698,000000	50,096423
1697,000000	50,073738
1696,000000	50,045468
1695,000000	50,015552
1694,000000	49,986558
1693,000000	49,964119
1692,000000	49,939233
1691,000000	49,912074
1690,000000	49,882295
1689,000000	49,854452
1688,000000	49,828260
1687,000000	49,804455
1686,000000	49,779850
1685,000000	49,752414
1684,000000	49,723628
1683,000000	49,693876
1682,000000	49,662706
1681,000000	49,631256
1680,000000	49,602314
1679,000000	49,574167
1678,000000	49,542844
1677,000000	49,512724
1676,000000	49,486471
1675,000000	49,456530
1674,000000	49,427159
1673,000000	49,400901
1672,000000	49,377135
1671,000000	49,354862
1670,000000	49,330448
1669,000000	49,305867
1668,000000	49,274545
1667,000000	49,242845
1666,000000	49,213463
1665,000000	49,185246
1664,000000	49,159826
1663,000000	49,133004
1662,000000	49,104306
1661,000000	49,073988
1660,000000	49,039316
1659,000000	49,002487
1658,000000	48,967867
1657,000000	48,933144
1656,000000	48,897567
1655,000000	48,863073
1654,000000	48,829833
1653,000000	48,797018
1652,000000	48,764303
1651,000000	48,728443
1650,000000	48,692604
1649,000000	48,657256
1648,000000	48,624002
1647,000000	48,591082
1646,000000	48,554230
1645,000000	48,520090
1644,000000	48,486556
1643,000000	48,449549
1642,000000	48,415723
1641,000000	48,380042
1640,000000	48,344612
1639,000000	48,310963
1638,000000	48,276304
1637,000000	48,240413
1636,000000	48,206327
1635,000000	48,174233
1634,000000	48,141203
1633,000000	48,107420
1632,000000	48,069222
1631,000000	48,028266
1630,000000	47,992386
1629,000000	47,959540
1628,000000	47,927060
1627,000000	47,894827
1626,000000	47,859618
1625,000000	47,820953
1624,000000	47,781835
1623,000000	47,744384
1622,000000	47,709018
1621,000000	47,672835
1620,000000	47,634748
1619,000000	47,597112
1618,000000	47,561831
1617,000000	47,522229
1616,000000	47,479945
1615,000000	47,442592
1614,000000	47,404811
1613,000000	47,361616
1612,000000	47,321729
1611,000000	47,283347
1610,000000	47,247505
1609,000000	47,213428
1608,000000	47,180148
1607,000000	47,146613
1606,000000	47,111522
1605,000000	47,074892
1604,000000	47,035727
1603,000000	47,000088
1602,000000	46,964673
1601,000000	46,925874
1600,000000	46,891111
1599,000000	46,862166
1598,000000	46,833042
1597,000000	46,794655
1596,000000	46,752377
1595,000000	46,711766
1594,000000	46,676490
1593,000000	46,641196
1592,000000	46,603793
1591,000000	46,567655
1590,000000	46,533083
1589,000000	46,497772
1588,000000	46,460497
1587,000000	46,421427
1586,000000	46,381741
1585,000000	46,345179
1584,000000	46,314364
1583,000000	46,285824
1582,000000	46,255019
1581,000000	46,220893
1580,000000	46,184557
1579,000000	46,150937
1578,000000	46,119540
1577,000000	46,090616
1576,000000	46,059401
1575,000000	46,028272
1574,000000	45,995943
1573,000000	45,962039
1572,000000	45,933441
1571,000000	45,904471
1570,000000	45,875919
1569,000000	45,845705
1568,000000	45,811206
1567,000000	45,776904
1566,000000	45,744331
1565,000000	45,715445
1564,000000	45,685205
1563,000000	45,658327
1562,000000	45,635299
1561,000000	45,610117
1560,000000	45,582090
1559,000000	45,558592
1558,000000	45,534717
1557,000000	45,506803
1556,000000	45,476976
1555,000000	45,449070
1554,000000	45,421076
1553,000000	45,395949
1552,000000	45,370844
1551,000000	45,346150
1550,000000	45,324063
1549,000000	45,300219
1548,000000	45,278988
1547,000000	45,256934
1546,000000	45,234100
1545,000000	45,212403
1544,000000	45,187024
1543,000000	45,161268
1542,000000	45,138547
1541,000000	45,118768
1540,000000	45,095040
1539,000000	45,069641
1538,000000	45,050572
1537,000000	45,038120
1536,000000	45,020302
1535,000000	45,001960
1534,000000	44,978932
1533,000000	44,949189
1532,000000	44,927270
1531,000000	44,908398
1530,000000	44,892665
1529,000000	44,881974
1528,000000	44,867803
1527,000000	44,846591
1526,000000	44,827618
1525,000000	44,816317
1524,000000	44,798035
1523,000000	44,781359
1522,000000	44,774153
1521,000000	44,760717
1520,000000	44,749207
1519,000000	44,738544
1518,000000	44,723670
1517,000000	44,701512
1516,000000	44,687170
1515,000000	44,676915
1514,000000	44,663473
1513,000000	44,650495
1512,000000	44,639309
1511,000000	44,631204
1510,000000	44,618084
1509,000000	44,605949
1508,000000	44,593741
1507,000000	44,582424
1506,000000	44,571005
1505,000000	44,562798
1504,000000	44,554479
1503,000000	44,545318
1502,000000	44,531111
1501,000000	44,518707
1500,000000	44,507867
1499,000000	44,500930
1498,000000	44,498726
1497,000000	44,490706
1496,000000	44,485308
1495,000000	44,475385
1494,000000	44,463853
1493,000000	44,450876
1492,000000	44,441795
1491,000000	44,431488
1490,000000	44,428477
1489,000000	44,423145
1488,000000	44,418169
1487,000000	44,413903
1486,000000	44,407264
1485,000000	44,408483
1484,000000	44,404130
1483,000000	44,396155
1482,000000	44,390796
1481,000000	44,385158
1480,000000	44,379230
1479,000000	44,371966
1478,000000	44,359088
1477,000000	44,345421
1476,000000	44,339127
1475,000000	44,330799
1474,000000	44,319486
1473,000000	44,312370
1472,000000	44,308118
1471,000000	44,299819
1470,000000	44,295462
1469,000000	44,289897
1468,000000	44,282354
1467,000000	44,279303
1466,000000	44,274701
1465,000000	44,269765
1464,000000	44,265671
1463,000000	44,254489
1462,000000	44,249560
1461,000000	44,242003
1460,000000	44,241054
1459,000000	44,238195
1458,000000	44,230862
1457,000000	44,225611
1456,000000	44,222438
1455,000000	44,220755
1454,000000	44,225247
1453,000000	44,235688
1452,000000	44,188606
1451,000000	44,176720
1450,000000	44,171818
1449,000000	44,168271
1448,000000	44,161905
1447,000000	44,149354
1446,000000	44,135658
1445,000000	44,128545
1444,000000	44,122995
1443,000000	44,109500
1442,000000	44,097615
1441,000000	44,088325
1440,000000	44,079787
1439,000000	44,068646
1438,000000	44,058381
1437,000000	44,048441
1436,000000	44,034163
1435,000000	44,022483
1434,000000	44,008293
1433,000000	43,994607
1432,000000	43,982508
1431,000000	43,971780
1430,000000	43,960786
1429,000000	43,949890
1428,000000	43,938750
1427,000000	43,924527
1426,000000	43,910969
1425,000000	43,894312
1424,000000	43,875420
1423,000000	43,855873
1422,000000	43,839184
1421,000000	43,824042
1420,000000	43,813329
1419,000000	43,801064
1418,000000	43,785079
1417,000000	43,767260
1416,000000	43,746242
1415,000000	43,725766
1414,000000	43,707589
1413,000000	43,685592
1412,000000	43,663905
1411,000000	43,644576
1410,000000	43,625766
1409,000000	43,606275
1408,000000	43,584880
1407,000000	43,558907
1406,000000	43,530455
1405,000000	43,505931
1404,000000	43,482340
1403,000000	43,459207
1402,000000	43,434302
1401,000000	43,408332
1400,000000	43,388551
1399,000000	43,366914
1398,000000	43,343825
1397,000000	43,321322
1396,000000	43,297961
1395,000000	43,272678
1394,000000	43,245776
1393,000000	43,216727
1392,000000	43,187098
1391,000000	43,161458
1390,000000	43,136704
1389,000000	43,110437
1388,000000	43,082881
1387,000000	43,057628
1386,000000	43,032316
1385,000000	43,004251
1384,000000	42,973459
1383,000000	42,945421
1382,000000	42,915455
1381,000000	42,882224
1380,000000	42,852150
1379,000000	42,827555
1378,000000	42,801919
1377,000000	42,778745
1376,000000	42,756831
1375,000000	42,731177
1374,000000	42,702861
1373,000000	42,676693
1372,000000	42,652288
1371,000000	42,623703
1370,000000	42,594026
1369,000000	42,565600
1368,000000	42,532049
1367,000000	42,495369
1366,000000	42,458989
1365,000000	42,425391
1364,000000	42,389916
1363,000000	42,351161
1362,000000	42,312651
1361,000000	42,276092
1360,000000	42,242966
1359,000000	42,208932
1358,000000	42,177938
1357,000000	42,149597
1356,000000	42,122079
1355,000000	42,093661
1354,000000	42,069818
1353,000000	42,047772
1352,000000	42,018884
1351,000000	41,988197
1350,000000	41,962632
1349,000000	41,958351
1348,000000	41,963027
1347,000000	41,930932
1346,000000	41,863958
1345,000000	41,854765
1344,000000	41,871618
1343,000000	41,852644
1342,000000	41,832042
1341,000000	41,808744
1340,000000	41,822647
1339,000000	41,799039
1338,000000	41,709102
1337,000000	41,695637
1336,000000	41,709723
1335,000000	41,689934
1334,000000	41,670186
1333,000000	41,650794
1332,000000	41,631510
1331,000000	41,607321
1330,000000	41,582856
1329,000000	41,565505
1328,000000	41,549394
1327,000000	41,530464
1326,000000	41,511615
1325,000000	41,492185
1324,000000	41,470578
1323,000000	41,449129
1322,000000	41,433764
1321,000000	41,421117
1320,000000	41,401147
1319,000000	41,383495
1318,000000	41,367389
1317,000000	41,351983
1316,000000	41,378409
1315,000000	41,347938
1314,000000	41,306392
1313,000000	41,294963
1312,000000	41,286538
1311,000000	41,277468
1310,000000	41,263512
1309,000000	41,246922
1308,000000	41,231962
1307,000000	41,218518
1306,000000	41,204451
1305,000000	41,192998
1304,000000	41,183266
1303,000000	41,175670
1302,000000	41,170404
1301,000000	41,166863
1300,000000	41,161997
1299,000000	41,157822
1298,000000	41,151817
1297,000000	41,145948
1296,000000	41,141870
1295,000000	41,139355
1294,000000	41,138942
1293,000000	41,138295
1292,000000	41,138644
1291,000000	41,138568
1290,000000	41,139636
1289,000000	41,140930
1288,000000	41,140884
1287,000000	41,147343
1286,000000	41,151351
1285,000000	41,153521
1284,000000	41,160106
1283,000000	41,165499
1282,000000	41,167367
1281,000000	41,171852
1280,000000	41,177779
1279,000000	41,181905
1278,000000	41,187852
1277,000000	41,191810
1276,000000	41,196837
1275,000000	41,203824
1274,000000	41,207196
1273,000000	41,213182
1272,000000	41,221561
1271,000000	41,227098
1270,000000	41,237393
1269,000000	41,245577
1268,000000	41,253909
1267,000000	41,266735
1266,000000	41,280160
1265,000000	41,287823
1264,000000	41,295626
1263,000000	41,303544
1262,000000	41,311875
1261,000000	41,320524
1260,000000	41,330611
1259,000000	41,344653
1258,000000	41,354413
1257,000000	41,364037
1256,000000	41,380162
1255,000000	41,392722
1254,000000	41,405224
1253,000000	41,419044
1252,000000	41,432524
1251,000000	41,445419
1250,000000	41,458353
1249,000000	41,472998
1248,000000	41,484110
1247,000000	41,496841
1246,000000	41,509874
1245,000000	41,519667
1244,000000	41,529660
1243,000000	41,541721
1242,000000	41,550822
1241,000000	41,560990
1240,000000	41,571672
1239,000000	41,582277
1238,000000	41,589873
1237,000000	41,601669
1236,000000	41,608271
1235,000000	41,618346
1234,000000	41,625428
1233,000000	41,623912
1232,000000	41,630221
1231,000000	41,639086
1230,000000	41,649438
1229,000000	41,650453
1228,000000	41,655548
1227,000000	41,655028
1226,000000	41,658468
1225,000000	41,661213
1224,000000	41,668922
1223,000000	41,671631
1222,000000	41,674829
1221,000000	41,678372
1220,000000	41,737720
1219,000000	41,696722
1218,000000	41,694331
1217,000000	41,693121
1216,000000	41,690286
1215,000000	41,682748
1214,000000	41,684004
1213,000000	41,685500
1212,000000	41,688517
1211,000000	41,689583
1210,000000	41,689266
1209,000000	41,685815
1208,000000	41,683942
1207,000000	41,685418
1206,000000	41,675538
1205,000000	41,667831
1204,000000	41,669113
1203,000000	41,676486
1202,000000	41,672780
1201,000000	41,661313
1200,000000	41,703637
1199,000000	41,697502
1198,000000	41,688618
1197,000000	41,684855
1196,000000	41,673426
1195,000000	41,669641
1194,000000	41,661907
1193,000000	41,652966
1192,000000	41,646482
1191,000000	41,589776
1190,000000	41,563722
1189,000000	41,552433
1188,000000	41,537840
1187,000000	41,527904
1186,000000	41,512370
1185,000000	41,502234
1184,000000	41,493889
1183,000000	41,483178
1182,000000	41,475613
1181,000000	41,463845
1180,000000	41,452153
1179,000000	41,448440
1178,000000	41,444089
1177,000000	41,433371
1176,000000	41,419912
1175,000000	41,407980
1174,000000	41,394195
1173,000000	41,384380
1172,000000	41,372584
1171,000000	41,357419
1170,000000	41,344582
1169,000000	41,336734
1168,000000	41,328117
1167,000000	41,314697
1166,000000	41,309373
1165,000000	41,298925
1164,000000	41,286624
1163,000000	41,281186
1162,000000	41,279117
1161,000000	41,275271
1160,000000	41,270878
1159,000000	41,265134
1158,000000	41,258021
1157,000000	41,254440
1156,000000	41,247385
1155,000000	41,249590
1154,000000	41,246955
1153,000000	41,242452
1152,000000	41,239215
1151,000000	41,234676
1150,000000	41,235516
1149,000000	41,241121
1148,000000	41,246057
1147,000000	41,249671
1146,000000	41,251275
1145,000000	41,252988
1144,000000	41,254968
1143,000000	41,261444
1142,000000	41,270795
1141,000000	41,279168
1140,000000	41,288111
1139,000000	41,301099
1138,000000	41,308486
1137,000000	41,319737
1136,000000	41,335715
1135,000000	41,350756
1134,000000	41,364054
1133,000000	41,377971
1132,000000	41,393604
1131,000000	41,409032
1130,000000	41,427971
1129,000000	41,445074
1128,000000	41,465367
1127,000000	41,482755
1126,000000	41,501593
1125,000000	41,521920
1124,000000	41,548661
1123,000000	41,577569
1122,000000	41,607721
1121,000000	41,633835
1120,000000	41,662036
1119,000000	41,692124
1118,000000	41,722404
1117,000000	41,749713
1116,000000	41,781632
1115,000000	41,812129
1114,000000	41,842014
1113,000000	41,871299
1112,000000	41,907502
1111,000000	41,944234
1110,000000	41,980901
1109,000000	42,016960
1108,000000	42,053778
1107,000000	42,088996
1106,000000	42,123352
1105,000000	42,159105
1104,000000	42,198431
1103,000000	42,240711
1102,000000	42,276650
1101,000000	42,314013
1100,000000	42,351735
1099,000000	42,388799
1098,000000	42,428551
1097,000000	42,468553
1096,000000	42,508399
1095,000000	42,548274
1094,000000	42,587443
1093,000000	42,625599
1092,000000	42,667078
1091,000000	42,711647
1090,000000	42,752004
1089,000000	42,790012
1088,000000	42,830235
1087,000000	42,869828
1086,000000	42,906907
1085,000000	42,939323
1084,000000	42,976791
1083,000000	43,017883
1082,000000	43,057363
1081,000000	43,098598
1080,000000	43,140269
1079,000000	43,178645
1078,000000	43,215043
1077,000000	43,250027
1076,000000	43,285034
1075,000000	43,322245
1074,000000	43,355875
1073,000000	43,385890
1072,000000	43,417325
1071,000000	43,448009
1070,000000	43,475866
1069,000000	43,509334
1068,000000	43,544213
1067,000000	43,576844
1066,000000	43,606721
1065,000000	43,631796
1064,000000	43,651596
1063,000000	43,671978
1062,000000	43,695522
1061,000000	43,719764
1060,000000	43,741923
1059,000000	43,765348
1058,000000	43,791306
1057,000000	43,812354
1056,000000	43,829687
1055,000000	43,844717
1054,000000	43,861962
1053,000000	43,883982
1052,000000	43,904638
1051,000000	43,917380
1050,000000	43,925318
1049,000000	43,934989
1048,000000	43,951310
1047,000000	43,968525
1046,000000	43,980229
1045,000000	43,994217
1044,000000	44,012121
1043,000000	44,027147
1042,000000	44,035870
1041,000000	44,044580
1040,000000	44,054376
1039,000000	44,066645
1038,000000	44,080431
1037,000000	44,090848
1036,000000	44,102137
1035,000000	44,115760
1034,000000	44,126548
1033,000000	44,134123
1032,000000	44,145379
1031,000000	44,155832
1030,000000	44,164522
1029,000000	44,174252
1028,000000	44,183920
1027,000000	44,193435
1026,000000	44,202341
1025,000000	44,212828
1024,000000	44,227001
1023,000000	44,243520
1022,000000	44,261372
1021,000000	44,280016
1020,000000	44,298919
1019,000000	44,319206
1018,000000	44,340548
1017,000000	44,364571
1016,000000	44,387639
1015,000000	44,403589
1014,000000	44,422159
1013,000000	44,443288
1012,000000	44,468340
1011,000000	44,501210
1010,000000	44,534171
1009,000000	44,563108
1008,000000	44,591303
1007,000000	44,620534
1006,000000	44,651077
1005,000000	44,683505
1004,000000	44,719819
1003,000000	44,755453
1002,000000	44,795387
1001,000000	44,840787
1000,000000	44,879794
999,000000	44,917703
998,000000	44,955786
997,000000	45,000139
996,000000	45,049495
995,000000	45,097338
994,000000	45,141304
993,000000	45,189703
992,000000	45,244339
991,000000	45,296379
990,000000	45,352907
989,000000	45,414204
988,000000	45,478259
987,000000	45,539632
986,000000	45,595566
985,000000	45,652340
984,000000	45,710749
983,000000	45,772831
982,000000	45,832251
981,000000	45,890500
980,000000	45,952655
979,000000	46,016189
978,000000	46,076581
977,000000	46,137841
976,000000	46,201047
975,000000	46,263151
974,000000	46,329072
973,000000	46,396218
972,000000	46,465227
971,000000	46,529686
970,000000	46,592346
969,000000	46,653997
968,000000	46,715610
967,000000	46,774842
966,000000	46,838671
965,000000	46,903539
964,000000	46,966312
963,000000	47,024493
962,000000	47,085572
961,000000	47,142995
960,000000	47,202200
959,000000	47,259032
958,000000	47,324445
957,000000	47,382739
956,000000	47,434086
955,000000	47,483830
954,000000	47,533447
953,000000	47,579249
952,000000	47,625844
951,000000	47,671386
950,000000	47,712676
949,000000	47,757354
948,000000	47,802768
947,000000	47,845693
946,000000	47,885449
945,000000	47,924144
944,000000	47,961085
943,000000	47,999912
942,000000	48,038611
941,000000	48,070151
940,000000	48,102061
939,000000	48,138708
938,000000	48,171956
937,000000	48,203871
936,000000	48,236940
935,000000	48,261123
934,000000	48,291919
933,000000	48,325828
932,000000	48,353206
931,000000	48,378659
930,000000	48,399500
929,000000	48,421509
928,000000	48,444770
927,000000	48,473312
926,000000	48,496468
925,000000	48,518103
924,000000	48,537474
923,000000	48,552149
922,000000	48,565817
921,000000	48,588845
920,000000	48,612563
919,000000	48,638862
918,000000	48,659683
917,000000	48,683097
916,000000	48,710937
915,000000	48,738758
914,000000	48,766279
913,000000	48,792646
912,000000	48,817552
911,000000	48,851174
910,000000	48,878675
909,000000	48,908122
908,000000	48,941826
907,000000	48,975925
906,000000	49,022625
905,000000	49,058197
904,000000	49,094310
903,000000	49,131877
902,000000	49,175652
901,000000	49,214303
900,000000	49,252716
899,000000	49,295715
898,000000	49,342906
897,000000	49,388915
896,000000	49,441638
895,000000	49,491810
894,000000	49,536429
893,000000	49,591823
892,000000	49,653889
891,000000	49,708934
890,000000	49,765360
889,000000	49,830151
888,000000	49,890633
887,000000	49,951971
886,000000	50,011538
885,000000	50,071375
884,000000	50,131124
883,000000	50,188856
882,000000	50,253780
881,000000	50,316747
880,000000	50,386190
879,000000	50,456741
878,000000	50,522668
877,000000	50,588089
876,000000	50,659350
875,000000	50,731701
874,000000	50,799949
873,000000	50,862957
872,000000	50,926159
871,000000	50,980574
870,000000	51,042859
869,000000	51,111474
868,000000	51,174695
867,000000	51,240407
866,000000	51,299394
865,000000	51,356848
864,000000	51,412378
863,000000	51,459865
862,000000	51,515813
861,000000	51,566403
860,000000	52,896492
859,000000	52,854607
858,000000	52,869938
857,000000	52,994426
856,000000	53,048585
855,000000	53,088584
854,000000	53,098378
853,000000	53,190724
852,000000	53,173825
851,000000	53,242991
850,000000	53,300005
849,000000	53,297393
848,000000	53,323841
847,000000	53,345532
846,000000	53,368669
845,000000	53,386088
844,000000	53,391131
843,000000	53,428137
842,000000	53,434885
841,000000	53,480241
840,000000	53,501128
839,000000	53,511477
838,000000	53,526042
837,000000	53,552812
836,000000	53,566681
835,000000	53,573776
834,000000	53,602318
833,000000	53,611567
832,000000	53,656149
831,000000	53,672371
830,000000	53,687195
829,000000	53,693451
828,000000	53,713534
827,000000	53,741802
826,000000	53,758159
825,000000	53,769689
824,000000	53,804872
823,000000	53,844960
822,000000	53,878319
821,000000	53,930638
820,000000	53,931707
819,000000	53,976631
818,000000	54,000178
817,000000	54,059913
816,000000	54,095727
815,000000	54,150485
814,000000	54,164420
813,000000	54,212626
812,000000	54,280845
811,000000	54,329588
810,000000	54,382343
809,000000	54,440804
808,000000	54,509466
807,000000	54,556654
806,000000	54,603766
805,000000	54,650966
804,000000	54,711975
803,000000	54,787658
802,000000	54,828158
801,000000	54,890021
800,000000	54,928291
799,000000	54,993164
798,000000	55,051001
797,000000	55,106139
796,000000	55,152009
795,000000	55,197600
794,000000	55,264704
793,000000	55,298393
792,000000	55,337664
791,000000	55,366221
790,000000	55,419588
789,000000	55,461408
788,000000	55,489812
787,000000	55,518148
786,000000	55,532241
785,000000	55,570253
784,000000	55,589467
783,000000	55,605166
782,000000	55,619405
781,000000	55,638571
780,000000	55,644126
779,000000	55,642930
778,000000	55,645965
777,000000	55,646235
776,000000	55,624356
775,000000	55,628164
774,000000	55,627983
773,000000	55,608551
772,000000	55,608376
771,000000	55,583415
770,000000	55,558233
769,000000	55,550032
768,000000	55,552153
767,000000	55,546794
766,000000	55,531522
765,000000	55,508449
764,000000	55,495297
763,000000	55,477321
762,000000	55,467765
761,000000	55,459250
760,000000	55,453492
759,000000	55,446245
758,000000	55,438772
757,000000	55,440794
756,000000	55,446576
755,000000	55,443048
754,000000	55,435277
753,000000	55,430991
752,000000	55,442717
751,000000	55,448263
750,000000	55,462985
749,000000	55,474331
748,000000	55,485343
747,000000	55,493925
746,000000	55,509988
745,000000	55,534784
744,000000	55,545194
743,000000	55,551574
742,000000	55,549577
741,000000	55,555166
740,000000	55,573949
739,000000	55,583201
738,000000	55,593509
737,000000	55,606828
736,000000	55,617714
735,000000	55,618478
734,000000	55,605875
733,000000	55,604808
732,000000	55,602208
731,000000	55,596084
730,000000	55,587022
729,000000	55,569783
728,000000	55,545694
727,000000	55,515105
726,000000	55,481641
725,000000	55,448875
724,000000	55,411997
723,000000	55,364284
722,000000	55,325944
721,000000	55,283539
720,000000	55,224057
719,000000	55,164368
718,000000	55,117431
717,000000	55,054203
716,000000	54,984593
715,000000	54,909965
714,000000	54,830665
713,000000	54,757398
712,000000	54,697621
711,000000	54,636971
710,000000	54,560688
709,000000	54,496143
708,000000	54,421035
707,000000	54,347360
706,000000	54,284200
705,000000	54,215617
704,000000	54,153894
703,000000	54,098580
702,000000	54,032105
701,000000	53,968422
700,000000	53,913578
699,000000	53,857997
698,000000	53,811558
697,000000	53,764169
696,000000	53,706315
695,000000	53,651162
694,000000	53,595246
693,000000	53,546880
692,000000	53,507778
691,000000	53,475592
690,000000	53,431007
689,000000	53,382303
688,000000	53,345308
687,000000	53,296262
686,000000	53,241708
685,000000	53,183697
684,000000	53,135212
683,000000	53,077666
682,000000	53,017219
681,000000	52,954316
680,000000	52,897377
679,000000	52,819450
678,000000	52,740022
677,000000	52,671586
676,000000	52,588456
675,000000	52,503797
674,000000	52,416189
673,000000	52,304079
672,000000	52,184513
671,000000	52,084873
670,000000	51,971000
669,000000	51,850815
668,000000	51,722624
667,000000	51,588719
666,000000	51,458925
665,000000	51,335311
664,000000	51,202311
663,000000	51,063937
662,000000	50,931186
661,000000	50,797371
660,000000	50,672462
659,000000	50,542704
658,000000	50,419392
657,000000	50,297049
656,000000	50,164007
655,000000	50,036175
654,000000	49,917114
653,000000	49,805616
652,000000	49,694675
651,000000	49,583583
650,000000	49,475371
649,000000	49,367821
648,000000	49,264579
647,000000	49,156929
646,000000	49,053115
645,000000	48,952941
644,000000	48,855666
643,000000	48,755074
642,000000	48,655084
641,000000	48,553502
640,000000	48,457629
639,000000	48,347789
638,000000	48,225654
637,000000	48,116130
636,000000	48,007936
635,000000	47,889684
634,000000	47,767335
633,000000	47,643192
632,000000	47,525159
631,000000	47,393046
630,000000	47,258130
629,000000	47,112418
628,000000	46,972231
627,000000	46,819473
626,000000	46,665438
625,000000	46,520685
624,000000	46,364195
623,000000	46,208267
622,000000	46,050189
621,000000	45,901947
620,000000	45,752514
619,000000	45,596774
618,000000	45,438313
617,000000	45,291155
616,000000	45,143334
615,000000	44,995978
614,000000	44,859575
613,000000	44,722124
612,000000	44,584216
611,000000	44,452518
610,000000	44,316781
609,000000	44,191609
608,000000	44,073819
607,000000	43,944813
606,000000	43,830221
605,000000	43,716848
604,000000	43,605424
603,000000	43,497329
602,000000	43,391952
601,000000	43,286574
600,000000	43,174537
599,000000	43,067252
598,000000	42,959718
597,000000	42,851679
596,000000	42,724770
595,000000	42,610920
594,000000	42,493771
593,000000	42,377486
592,000000	42,257227
591,000000	42,131118
590,000000	42,014309
589,000000	41,889332
588,000000	41,766462
587,000000	41,648694
586,000000	41,521105
585,000000	41,392909
584,000000	41,286073
583,000000	41,175372
582,000000	41,066114
581,000000	40,959846
580,000000	40,861053
579,000000	40,765599
578,000000	40,684169
577,000000	40,600626
576,000000	40,513102
575,000000	40,444441
574,000000	40,370776
573,000000	40,312065
572,000000	40,242843
571,000000	40,195906
570,000000	40,151815
569,000000	40,109160
568,000000	40,066610
567,000000	40,025125
566,000000	39,991168
565,000000	39,946389
564,000000	39,901237
563,000000	39,854405
562,000000	39,787205
561,000000	39,749404
560,000000	39,712771
559,000000	39,662438
558,000000	39,627230
557,000000	39,589887
556,000000	39,555054
555,000000	39,528795
554,000000	39,499276
553,000000	39,475322
552,000000	39,457233
551,000000	39,442346
550,000000	39,423401
549,000000	39,431365
548,000000	39,432340
547,000000	39,451302
546,000000	39,472272
545,000000	39,504201
544,000000	39,533600
543,000000	39,592475
542,000000	39,645764
541,000000	39,708730
540,000000	39,768406
539,000000	39,832372
538,000000	39,902511
537,000000	39,978765
536,000000	40,049818
535,000000	40,126169
534,000000	40,188227
533,000000	40,264066
532,000000	40,331606
531,000000	40,396219
530,000000	40,462141
529,000000	40,520448
528,000000	40,586818
527,000000	40,654221
526,000000	40,729078
525,000000	40,806815
524,000000	40,880829
523,000000	40,961489
522,000000	41,052652
521,000000	41,149509
520,000000	41,258821
519,000000	41,370417
518,000000	41,502132
517,000000	41,627922
516,000000	41,754489
515,000000	41,892782
514,000000	42,038403
513,000000	42,171491
512,000000	42,305873
511,000000	42,430969
510,000000	42,556947
509,000000	42,676750
508,000000	42,796463
507,000000	42,898483
506,000000	42,995823
505,000000	43,086236
504,000000	43,172036
503,000000	43,251585
502,000000	43,331177
501,000000	43,401178
500,000000	43,468561
499,000000	43,536773
498,000000	43,614993
497,000000	43,685596
496,000000	43,763516
495,000000	43,850541
494,000000	43,931563
493,000000	44,023874
492,000000	44,111176
491,000000	44,191239
490,000000	44,271920
489,000000	44,352316
488,000000	44,410672
487,000000	44,462290
486,000000	44,498664
485,000000	44,515497
484,000000	44,511659
483,000000	44,491174
482,000000	44,458820
481,000000	44,431005
480,000000	44,390064
479,000000	44,331668
478,000000	44,266717
477,000000	44,203199
476,000000	44,126440
475,000000	44,050674
474,000000	43,973491
473,000000	43,889337
472,000000	43,780257
471,000000	43,660232
470,000000	43,534866
469,000000	43,387417
468,000000	43,222821
467,000000	43,039082
466,000000	42,829956
465,000000	42,599972
464,000000	42,348119
463,000000	42,091270
462,000000	41,811995
461,000000	41,518357
460,000000	41,218602
459,000000	40,915383
458,000000	40,606281
457,000000	40,296164
456,000000	39,990206
455,000000	39,673828
454,000000	39,357313
453,000000	39,036192
452,000000	38,708483
451,000000	38,373797
450,000000	38,029446
449,000000	37,677973
448,000000	37,318439
447,000000	36,955017
446,000000	36,594023
445,000000	36,241734
444,000000	35,903046
443,000000	35,593376
442,000000	35,303795
441,000000	35,027493
440,000000	34,769992
439,000000	34,525490
438,000000	34,304437
437,000000	34,095701
436,000000	33,891079
435,000000	33,696930
434,000000	33,515979
433,000000	33,347720
432,000000	33,192061
431,000000	33,050465
430,000000	32,920930
429,000000	32,799840
428,000000	32,668638
427,000000	32,515977
426,000000	32,322880
425,000000	32,062769
424,000000	31,719841
423,000000	31,276194
422,000000	30,719265
421,000000	30,039860
420,000000	29,241923
419,000000	28,354689
418,000000	27,389788
417,000000	26,361708
416,000000	25,319738
415,000000	24,304729
414,000000	23,337615
413,000000	22,447307
412,000000	21,654676
411,000000	20,954123
410,000000	20,352761
409,000000	19,848520
408,000000	19,426617
407,000000	19,085020
406,000000	18,802018
405,000000	18,563923
404,000000	18,369487
403,000000	18,208751
402,000000	18,067230
401,000000	17,938211
400,000000	17,820546
399,000000	17,706785
398,000000	17,592123
397,000000	17,474726
396,000000	17,353781
395,000000	17,222647
394,000000	17,087408
393,000000	16,950204
392,000000	16,814699
391,000000	16,678199
390,000000	16,548429
389,000000	16,422508
388,000000	16,303263
387,000000	16,201447
386,000000	16,109410
385,000000	16,025434
384,000000	15,955964
383,000000	15,893217
382,000000	15,841568
381,000000	15,795986
380,000000	15,750881
379,000000	15,619093
378,000000	15,504530
377,000000	15,436593
376,000000	15,395035
375,000000	15,351433
374,000000	15,322658
373,000000	15,254705
372,000000	15,182071
371,000000	15,089113
370,000000	14,998037
369,000000	14,895732
368,000000	14,769147
367,000000	14,652804
366,000000	14,519654
365,000000	14,372842
364,000000	14,218631
363,000000	14,047384
362,000000	13,865172
361,000000	13,686979
360,000000	13,488779
359,000000	13,280020
358,000000	13,046460
357,000000	12,809179
356,000000	12,572983
355,000000	12,335246
354,000000	12,083196
353,000000	11,824872
352,000000	11,568162
351,000000	11,333164
350,000000	11,099715
349,000000	10,861318
348,000000	10,633426
347,000000	10,403815
346,000000	10,187377
345,000000	9,986127
344,000000	9,789569
343,000000	9,619365
342,000000	9,437992
341,000000	9,262714
340,000000	9,082371
339,000000	8,925808
338,000000	8,758766
337,000000	8,607147
336,000000	8,454186
335,000000	8,316908
334,000000	8,158710
333,000000	8,013263
332,000000	7,869227
331,000000	7,744867
330,000000	7,608235
329,000000	7,479966
328,000000	7,327710
327,000000	7,181623
326,000000	7,015381
325,000000	6,853211
324,000000	6,708167
323,000000	6,579291
322,000000	6,445607
321,000000	6,322590
320,000000	6,220090
319,000000	6,179361
318,000000	6,082547
317,000000	5,976311
316,000000	5,884976
315,000000	5,798990
314,000000	5,715594
313,000000	5,634859
312,000000	5,565841
311,000000	5,494595
310,000000	5,432016
309,000000	5,374410
308,000000	5,323952
307,000000	5,277229
306,000000	5,238699
305,000000	5,202162
304,000000	5,162649
303,000000	5,127390
302,000000	5,090863
301,000000	5,041473
300,000000	4,983631
299,000000	4,924576
298,000000	4,851616
297,000000	4,770711
296,000000	4,682111
295,000000	4,591938
294,000000	4,498624
293,000000	4,393607
292,000000	4,285082
291,000000	4,169759
290,000000	4,036972
289,000000	3,888285
288,000000	3,729321
287,000000	3,554426
286,000000	3,352730
285,000000	3,137642
284,000000	2,898218
283,000000	2,650397
282,000000	2,393465
281,000000	2,126229
280,000000	1,863874
279,000000	1,603021
278,000000	1,347553
277,000000	1,109611
276,000000	0,891835
275,000000	0,703881
274,000000	0,546962
273,000000	0,423986
272,000000	0,329915
271,000000	0,264791
270,000000	0,226626
269,000000	0,208575
268,000000	0,198021
267,000000	0,193735
266,000000	0,188380
265,000000	0,175626
264,000000	0,162302
263,000000	0,153740
262,000000	0,153102
261,000000	0,149847
260,000000	0,150705
259,000000	0,149291
258,000000	0,151067
257,000000	0,148856
256,000000	0,149958
255,000000	0,146695
254,000000	0,147418
253,000000	0,147369
252,000000	0,148892
251,000000	0,147379
250,000000	0,145219
249,000000	0,146006
248,000000	0,145436
247,000000	0,145951
246,000000	0,147644
245,000000	0,145805
244,000000	0,146631
243,000000	0,144688
242,000000	0,146623
241,000000	0,148614
240,000000	0,149565
239,000000	0,148472
238,000000	0,150483
237,000000	0,153871
236,000000	0,151812
235,000000	0,154312
234,000000	0,155716
233,000000	0,154739
232,000000	0,154925
231,000000	0,156021
230,000000	0,155686
229,000000	0,156256
228,000000	0,155667
227,000000	0,155572
226,000000	0,157197
225,000000	0,155378
224,000000	0,155024
223,000000	0,155203
222,000000	0,154127
221,000000	0,155413
220,000000	0,157254
219,000000	0,155892
218,000000	0,154925
217,000000	0,154148
216,000000	0,154699
215,000000	0,153528
214,000000	0,155160
213,000000	0,157458
212,000000	0,156627
211,000000	0,157933
210,000000	0,160015
209,000000	0,161365
208,000000	0,161687
207,000000	0,164366
206,000000	0,166031
205,000000	0,167939
204,000000	0,169456
203,000000	0,170252
202,000000	0,171832
201,000000	0,176276
200,000000	0,179258
