PE UV       SUBTECH     SPECTRUM    ASCII       PEDS        4.00        
   -1
sampleB_limpo.Sample.asc
22/01/27
16:21:31.00
22/01/27
16:21:31.00
Administrator

200,000000
1
Lambda 1050
1050L1808311
PerkinElmer UV WinLab 6.4.0.973 / 2.02.11 Lambda 900 UV/VIS/NIR, May 23 2018 11:23:04

0
0
3350/servo 1800,8/servo 860,8/2
0
0
UV/VIS
1
1
1
CommonBeamDepol,RBeamAtt,SBeamAtt,uv/vis/nir detector, TDS WB InGaAs Detector
0
0
0
0
Program
Program
3350/servo 1800,8/servo 860,8/2
3350/0,2 1800,8/0,2 860,8/0,2
3350/0,2 1800,8/0,2 860,8/0,2
0
3350/1,00 1800,8/1,00
 
 
 
0
 
860,8
319,2
1800,8 860,8
Front
100
on
S:100 R:100
 
0
0
0
 
0
 
 
 
0
 
 
0
0
0
0
0
 
 
 
 
0
0


0
0
#HDR
-1
-1
#GR
nm
%T
1.0
0.0
2000,000000
-1,000000
1801
8
91,961520
86,585482
#DATA
2000,000000	91,915791
1999,000000	91,912389
1998,000000	91,891036
1997,000000	91,938388
1996,000000	91,926072
1995,000000	91,926732
1994,000000	91,909547
1993,000000	91,927089
1992,000000	91,961520
1991,000000	91,954411
1990,000000	91,936477
1989,000000	91,912599
1988,000000	91,865581
1987,000000	91,870454
1986,000000	91,889595
1985,000000	91,897647
1984,000000	91,883366
1983,000000	91,892533
1982,000000	91,911739
1981,000000	91,886882
1980,000000	91,879143
1979,000000	91,896367
1978,000000	91,877447
1977,000000	91,903270
1976,000000	91,889465
1975,000000	91,910677
1974,000000	91,894980
1973,000000	91,896911
1972,000000	91,893735
1971,000000	91,899726
1970,000000	91,884688
1969,000000	91,876089
1968,000000	91,844011
1967,000000	91,836482
1966,000000	91,842994
1965,000000	91,847410
1964,000000	91,884983
1963,000000	91,886920
1962,000000	91,851976
1961,000000	91,858789
1960,000000	91,859436
1959,000000	91,856386
1958,000000	91,861838
1957,000000	91,871466
1956,000000	91,901304
1955,000000	91,879427
1954,000000	91,889583
1953,000000	91,877700
1952,000000	91,875916
1951,000000	91,864651
1950,000000	91,872062
1949,000000	91,881997
1948,000000	91,843977
1947,000000	91,868989
1946,000000	91,844831
1945,000000	91,824443
1944,000000	91,827616
1943,000000	91,840078
1942,000000	91,832187
1941,000000	91,782145
1940,000000	91,772076
1939,000000	91,778339
1938,000000	91,795122
1937,000000	91,810342
1936,000000	91,811165
1935,000000	91,816336
1934,000000	91,836132
1933,000000	91,846445
1932,000000	91,822361
1931,000000	91,806860
1930,000000	91,799515
1929,000000	91,793738
1928,000000	91,791721
1927,000000	91,799284
1926,000000	91,799272
1925,000000	91,800578
1924,000000	91,823130
1923,000000	91,822390
1922,000000	91,803943
1921,000000	91,793352
1920,000000	91,798868
1919,000000	91,801515
1918,000000	91,838599
1917,000000	91,870253
1916,000000	91,821788
1915,000000	91,819651
1914,000000	91,823962
1913,000000	91,796734
1912,000000	91,785703
1911,000000	91,796459
1910,000000	91,805877
1909,000000	91,823205
1908,000000	91,842976
1907,000000	91,792119
1906,000000	91,774898
1905,000000	91,776438
1904,000000	91,784033
1903,000000	91,784605
1902,000000	91,811064
1901,000000	91,815665
1900,000000	91,771384
1899,000000	91,755301
1898,000000	91,771487
1897,000000	91,801956
1896,000000	91,826148
1895,000000	91,841291
1894,000000	91,816455
1893,000000	91,806092
1892,000000	91,824150
1891,000000	91,785693
1890,000000	91,766797
1889,000000	91,787013
1888,000000	91,799365
1887,000000	91,778663
1886,000000	91,787738
1885,000000	91,788676
1884,000000	91,782335
1883,000000	91,794220
1882,000000	91,813424
1881,000000	91,826481
1880,000000	91,809633
1879,000000	91,792692
1878,000000	91,763457
1877,000000	91,742779
1876,000000	91,759383
1875,000000	91,763493
1874,000000	91,765272
1873,000000	91,768480
1872,000000	91,750161
1871,000000	91,737495
1870,000000	91,734772
1869,000000	91,716665
1868,000000	91,728438
1867,000000	91,752974
1866,000000	91,761048
1865,000000	91,761641
1864,000000	91,757366
1863,000000	91,774855
1862,000000	91,805065
1861,000000	91,797242
1860,000000	91,789684
1859,000000	91,787296
1858,000000	91,786040
1857,000000	91,806027
1856,000000	91,825707
1855,000000	91,810814
1854,000000	91,799930
1853,000000	91,805571
1852,000000	91,796065
1851,000000	91,784510
1850,000000	91,781673
1849,000000	91,774831
1848,000000	91,763736
1847,000000	91,771940
1846,000000	91,794915
1845,000000	91,821735
1844,000000	91,809959
1843,000000	91,757804
1842,000000	91,741843
1841,000000	91,758813
1840,000000	91,795449
1839,000000	91,787231
1838,000000	91,773575
1837,000000	91,740723
1836,000000	91,704630
1835,000000	91,723147
1834,000000	91,785662
1833,000000	91,809671
1832,000000	91,785609
1831,000000	91,760576
1830,000000	91,758088
1829,000000	91,777651
1828,000000	91,807214
1827,000000	91,800583
1826,000000	91,786179
1825,000000	91,798098
1824,000000	91,782828
1823,000000	91,764151
1822,000000	91,738787
1821,000000	91,739433
1820,000000	91,772654
1819,000000	91,806781
1818,000000	91,818069
1817,000000	91,789383
1816,000000	91,741442
1815,000000	91,738386
1814,000000	91,755173
1813,000000	91,781600
1812,000000	91,787120
1811,000000	91,774849
1810,000000	91,777349
1809,000000	91,764945
1808,000000	91,739831
1807,000000	91,731495
1806,000000	91,752198
1805,000000	91,787782
1804,000000	91,801704
1803,000000	91,771190
1802,000000	91,742463
1801,000000	91,713797
1800,000000	91,656785
1799,000000	91,662017
1798,000000	91,668148
1797,000000	91,678802
1796,000000	91,690074
1795,000000	91,694967
1794,000000	91,682918
1793,000000	91,682272
1792,000000	91,680968
1791,000000	91,683328
1790,000000	91,693957
1789,000000	91,697733
1788,000000	91,701733
1787,000000	91,705866
1786,000000	91,705353
1785,000000	91,701482
1784,000000	91,709209
1783,000000	91,713646
1782,000000	91,726649
1781,000000	91,725289
1780,000000	91,721827
1779,000000	91,724682
1778,000000	91,727628
1777,000000	91,726778
1776,000000	91,729064
1775,000000	91,732691
1774,000000	91,736247
1773,000000	91,732811
1772,000000	91,735616
1771,000000	91,732706
1770,000000	91,728902
1769,000000	91,728956
1768,000000	91,733315
1767,000000	91,720866
1766,000000	91,719144
1765,000000	91,721487
1764,000000	91,719551
1763,000000	91,719761
1762,000000	91,727598
1761,000000	91,734748
1760,000000	91,730278
1759,000000	91,727955
1758,000000	91,732810
1757,000000	91,738006
1756,000000	91,742369
1755,000000	91,746678
1754,000000	91,744652
1753,000000	91,739444
1752,000000	91,722842
1751,000000	91,718518
1750,000000	91,728671
1749,000000	91,733270
1748,000000	91,726477
1747,000000	91,720864
1746,000000	91,713245
1745,000000	91,718492
1744,000000	91,727997
1743,000000	91,733766
1742,000000	91,727065
1741,000000	91,728522
1740,000000	91,735471
1739,000000	91,745343
1738,000000	91,745800
1737,000000	91,740136
1736,000000	91,740654
1735,000000	91,736557
1734,000000	91,727322
1733,000000	91,718095
1732,000000	91,710117
1731,000000	91,705899
1730,000000	91,700967
1729,000000	91,698436
1728,000000	91,706026
1727,000000	91,717912
1726,000000	91,728925
1725,000000	91,725332
1724,000000	91,719980
1723,000000	91,715821
1722,000000	91,717147
1721,000000	91,715213
1720,000000	91,712157
1719,000000	91,712199
1718,000000	91,708743
1717,000000	91,704092
1716,000000	91,703203
1715,000000	91,700800
1714,000000	91,702292
1713,000000	91,705865
1712,000000	91,711899
1711,000000	91,715975
1710,000000	91,720929
1709,000000	91,723480
1708,000000	91,713922
1707,000000	91,702151
1706,000000	91,698690
1705,000000	91,705436
1704,000000	91,712969
1703,000000	91,712805
1702,000000	91,712782
1701,000000	91,711914
1700,000000	91,712597
1699,000000	91,709269
1698,000000	91,703766
1697,000000	91,703821
1696,000000	91,697814
1695,000000	91,689255
1694,000000	91,680811
1693,000000	91,682481
1692,000000	91,688432
1691,000000	91,695178
1690,000000	91,699381
1689,000000	91,700472
1688,000000	91,709127
1687,000000	91,717290
1686,000000	91,723802
1685,000000	91,722622
1684,000000	91,716581
1683,000000	91,712279
1682,000000	91,706848
1681,000000	91,702072
1680,000000	91,698512
1679,000000	91,693701
1678,000000	91,686405
1677,000000	91,680068
1676,000000	91,677127
1675,000000	91,678748
1674,000000	91,681658
1673,000000	91,679400
1672,000000	91,678679
1671,000000	91,685801
1670,000000	91,691004
1669,000000	91,690544
1668,000000	91,682980
1667,000000	91,673292
1666,000000	91,671471
1665,000000	91,674826
1664,000000	91,678781
1663,000000	91,684938
1662,000000	91,689673
1661,000000	91,692254
1660,000000	91,689850
1659,000000	91,686380
1658,000000	91,689200
1657,000000	91,690495
1656,000000	91,688568
1655,000000	91,690005
1654,000000	91,690241
1653,000000	91,686963
1652,000000	91,685563
1651,000000	91,683105
1650,000000	91,683981
1649,000000	91,686189
1648,000000	91,690188
1647,000000	91,701124
1646,000000	91,704935
1645,000000	91,703565
1644,000000	91,705749
1643,000000	91,703302
1642,000000	91,699208
1641,000000	91,688892
1640,000000	91,688131
1639,000000	91,692078
1638,000000	91,691680
1637,000000	91,692119
1636,000000	91,696850
1635,000000	91,705750
1634,000000	91,709951
1633,000000	91,706331
1632,000000	91,703168
1631,000000	91,698575
1630,000000	91,703876
1629,000000	91,710277
1628,000000	91,709387
1627,000000	91,705851
1626,000000	91,702800
1625,000000	91,694183
1624,000000	91,684687
1623,000000	91,677730
1622,000000	91,681902
1621,000000	91,690733
1620,000000	91,693780
1619,000000	91,693427
1618,000000	91,688069
1617,000000	91,679180
1616,000000	91,674188
1615,000000	91,677271
1614,000000	91,678263
1613,000000	91,667659
1612,000000	91,667106
1611,000000	91,669405
1610,000000	91,667917
1609,000000	91,667821
1608,000000	91,679843
1607,000000	91,683364
1606,000000	91,681407
1605,000000	91,682208
1604,000000	91,681672
1603,000000	91,681748
1602,000000	91,685601
1601,000000	91,684437
1600,000000	91,687270
1599,000000	91,685134
1598,000000	91,688624
1597,000000	91,683786
1596,000000	91,675239
1595,000000	91,676305
1594,000000	91,671405
1593,000000	91,664589
1592,000000	91,659795
1591,000000	91,662836
1590,000000	91,673613
1589,000000	91,678806
1588,000000	91,676089
1587,000000	91,672973
1586,000000	91,670210
1585,000000	91,665895
1584,000000	91,669648
1583,000000	91,677334
1582,000000	91,682467
1581,000000	91,680914
1580,000000	91,672323
1579,000000	91,668857
1578,000000	91,674027
1577,000000	91,681161
1576,000000	91,684094
1575,000000	91,678628
1574,000000	91,674295
1573,000000	91,676991
1572,000000	91,679553
1571,000000	91,690862
1570,000000	91,697877
1569,000000	91,697127
1568,000000	91,686894
1567,000000	91,675679
1566,000000	91,664380
1565,000000	91,655672
1564,000000	91,658224
1563,000000	91,659643
1562,000000	91,663864
1561,000000	91,667906
1560,000000	91,668116
1559,000000	91,671016
1558,000000	91,666857
1557,000000	91,663079
1556,000000	91,656935
1555,000000	91,653976
1554,000000	91,649833
1553,000000	91,648791
1552,000000	91,651633
1551,000000	91,651401
1550,000000	91,655600
1549,000000	91,662608
1548,000000	91,656944
1547,000000	91,656494
1546,000000	91,659503
1545,000000	91,662874
1544,000000	91,656378
1543,000000	91,648975
1542,000000	91,651047
1541,000000	91,658116
1540,000000	91,663237
1539,000000	91,659587
1538,000000	91,652423
1537,000000	91,657896
1536,000000	91,652853
1535,000000	91,650599
1534,000000	91,643284
1533,000000	91,639037
1532,000000	91,639860
1531,000000	91,643444
1530,000000	91,639283
1529,000000	91,639744
1528,000000	91,641121
1527,000000	91,630550
1526,000000	91,628770
1525,000000	91,626799
1524,000000	91,625793
1523,000000	91,632592
1522,000000	91,648581
1521,000000	91,652950
1520,000000	91,656165
1519,000000	91,654411
1518,000000	91,655967
1517,000000	91,648208
1516,000000	91,650173
1515,000000	91,653253
1514,000000	91,661404
1513,000000	91,663893
1512,000000	91,659470
1511,000000	91,665494
1510,000000	91,664722
1509,000000	91,655515
1508,000000	91,650197
1507,000000	91,650997
1506,000000	91,653674
1505,000000	91,653034
1504,000000	91,660202
1503,000000	91,668774
1502,000000	91,669595
1501,000000	91,668288
1500,000000	91,673736
1499,000000	91,677429
1498,000000	91,676830
1497,000000	91,688239
1496,000000	91,689982
1495,000000	91,690130
1494,000000	91,689160
1493,000000	91,682906
1492,000000	91,683787
1491,000000	91,683092
1490,000000	91,687703
1489,000000	91,688406
1488,000000	91,691221
1487,000000	91,696603
1486,000000	91,703534
1485,000000	91,700670
1484,000000	91,687344
1483,000000	91,677450
1482,000000	91,688732
1481,000000	91,694023
1480,000000	91,690347
1479,000000	91,687216
1478,000000	91,677599
1477,000000	91,663138
1476,000000	91,663168
1475,000000	91,659708
1474,000000	91,653680
1473,000000	91,654428
1472,000000	91,653198
1471,000000	91,648657
1470,000000	91,643792
1469,000000	91,633680
1468,000000	91,629961
1467,000000	91,632854
1466,000000	91,627119
1465,000000	91,626499
1464,000000	91,624321
1463,000000	91,616677
1462,000000	91,618283
1461,000000	91,624117
1460,000000	91,642249
1459,000000	91,648681
1458,000000	91,649947
1457,000000	91,661286
1456,000000	91,692137
1455,000000	91,718881
1454,000000	91,761773
1453,000000	91,819497
1452,000000	91,756678
1451,000000	91,668229
1450,000000	91,666417
1449,000000	91,674020
1448,000000	91,681299
1447,000000	91,677013
1446,000000	91,660914
1445,000000	91,656771
1444,000000	91,654123
1443,000000	91,649050
1442,000000	91,650343
1441,000000	91,656604
1440,000000	91,654818
1439,000000	91,655354
1438,000000	91,662280
1437,000000	91,662529
1436,000000	91,655296
1435,000000	91,651143
1434,000000	91,648727
1433,000000	91,644339
1432,000000	91,648456
1431,000000	91,659068
1430,000000	91,660306
1429,000000	91,668659
1428,000000	91,675835
1427,000000	91,676696
1426,000000	91,674734
1425,000000	91,670533
1424,000000	91,666609
1423,000000	91,655079
1422,000000	91,616109
1421,000000	91,639842
1420,000000	91,688278
1419,000000	91,677899
1418,000000	91,685372
1417,000000	91,709952
1416,000000	91,708959
1415,000000	91,696179
1414,000000	91,695892
1413,000000	91,692589
1412,000000	91,691120
1411,000000	91,693610
1410,000000	91,696927
1409,000000	91,697583
1408,000000	91,691103
1407,000000	91,677228
1406,000000	91,672397
1405,000000	91,668861
1404,000000	91,660493
1403,000000	91,654144
1402,000000	91,653266
1401,000000	91,649966
1400,000000	91,649218
1399,000000	91,653990
1398,000000	91,661759
1397,000000	91,665168
1396,000000	91,665985
1395,000000	91,669145
1394,000000	91,662844
1393,000000	91,657977
1392,000000	91,654044
1391,000000	91,650393
1390,000000	91,642216
1389,000000	91,625773
1388,000000	91,620259
1387,000000	91,628824
1386,000000	91,634252
1385,000000	91,630230
1384,000000	91,623572
1383,000000	91,618030
1382,000000	91,610407
1381,000000	91,606253
1380,000000	91,605533
1379,000000	91,606645
1378,000000	91,609473
1377,000000	91,624884
1376,000000	91,645148
1375,000000	91,658264
1374,000000	91,664144
1373,000000	91,680174
1372,000000	91,691569
1371,000000	91,683132
1370,000000	91,673867
1369,000000	91,667464
1368,000000	91,651611
1367,000000	91,624506
1366,000000	91,608046
1365,000000	91,598256
1364,000000	91,563613
1363,000000	91,528258
1362,000000	91,511983
1361,000000	91,492960
1360,000000	91,472013
1359,000000	91,453668
1358,000000	91,443098
1357,000000	91,440132
1356,000000	91,438016
1355,000000	91,427799
1354,000000	91,424464
1353,000000	91,430178
1352,000000	91,426537
1351,000000	91,424551
1350,000000	91,428252
1349,000000	91,429459
1348,000000	91,425219
1347,000000	91,351568
1346,000000	91,301394
1345,000000	91,397977
1344,000000	91,565459
1343,000000	91,657440
1342,000000	91,582417
1341,000000	91,509681
1340,000000	91,595527
1339,000000	91,587422
1338,000000	91,515857
1337,000000	91,611760
1336,000000	91,698506
1335,000000	91,622119
1334,000000	91,558979
1333,000000	91,563522
1332,000000	91,560182
1331,000000	91,554595
1330,000000	91,551153
1329,000000	91,554484
1328,000000	91,557897
1327,000000	91,553458
1326,000000	91,549517
1325,000000	91,547173
1324,000000	91,541188
1323,000000	91,598694
1322,000000	91,649212
1321,000000	91,659484
1320,000000	91,577938
1319,000000	91,616566
1318,000000	91,676065
1317,000000	91,667995
1316,000000	91,668532
1315,000000	91,574627
1314,000000	91,612709
1313,000000	91,678730
1312,000000	91,682020
1311,000000	91,684645
1310,000000	91,683908
1309,000000	91,586556
1308,000000	91,526854
1307,000000	91,529205
1306,000000	91,526361
1305,000000	91,515515
1304,000000	91,503904
1303,000000	91,498517
1302,000000	91,499618
1301,000000	91,497405
1300,000000	91,501556
1299,000000	91,504593
1298,000000	91,501041
1297,000000	91,499613
1296,000000	91,493774
1295,000000	91,494511
1294,000000	91,598439
1293,000000	91,650925
1292,000000	91,658819
1291,000000	91,655994
1290,000000	91,650120
1289,000000	91,567316
1288,000000	91,532446
1287,000000	91,647362
1286,000000	91,691332
1285,000000	91,689374
1284,000000	91,694243
1283,000000	91,696319
1282,000000	91,697840
1281,000000	91,696076
1280,000000	91,695755
1279,000000	91,692475
1278,000000	91,686509
1277,000000	91,682189
1276,000000	91,687005
1275,000000	91,695671
1274,000000	91,683064
1273,000000	91,677996
1272,000000	91,682246
1271,000000	91,572498
1270,000000	91,536889
1269,000000	91,535508
1268,000000	91,541988
1267,000000	91,628165
1266,000000	91,655323
1265,000000	91,647318
1264,000000	91,523883
1263,000000	91,495725
1262,000000	91,618748
1261,000000	91,644663
1260,000000	91,636656
1259,000000	91,631284
1258,000000	91,627651
1257,000000	91,625048
1256,000000	91,629264
1255,000000	91,626600
1254,000000	91,625176
1253,000000	91,633404
1252,000000	91,637809
1251,000000	91,645308
1250,000000	91,647905
1249,000000	91,654959
1248,000000	91,656267
1247,000000	91,663869
1246,000000	91,664889
1245,000000	91,661962
1244,000000	91,663147
1243,000000	91,662659
1242,000000	91,657441
1241,000000	91,653690
1240,000000	91,649273
1239,000000	91,641784
1238,000000	91,520029
1237,000000	91,503019
1236,000000	91,628077
1235,000000	91,652066
1234,000000	91,653193
1233,000000	91,533071
1232,000000	91,640846
1231,000000	91,652687
1230,000000	91,649730
1229,000000	91,534289
1228,000000	91,641506
1227,000000	91,642739
1226,000000	91,635937
1225,000000	91,514811
1224,000000	91,630990
1223,000000	91,635809
1222,000000	91,634791
1221,000000	91,640617
1220,000000	91,652618
1219,000000	91,549609
1218,000000	91,534589
1217,000000	91,519714
1216,000000	91,630606
1215,000000	91,624023
1214,000000	91,615772
1213,000000	91,610937
1212,000000	91,620888
1211,000000	91,626287
1210,000000	91,646799
1209,000000	91,654251
1208,000000	91,656817
1207,000000	91,655920
1206,000000	91,642976
1205,000000	91,625388
1204,000000	91,564767
1203,000000	91,580101
1202,000000	91,585650
1201,000000	91,567261
1200,000000	91,672097
1199,000000	91,681896
1198,000000	91,671842
1197,000000	91,671671
1196,000000	91,675634
1195,000000	91,673304
1194,000000	91,683369
1193,000000	91,679204
1192,000000	91,673893
1191,000000	91,560244
1190,000000	91,580400
1189,000000	91,585214
1188,000000	91,581876
1187,000000	91,575345
1186,000000	91,570541
1185,000000	91,560928
1184,000000	91,560438
1183,000000	91,560352
1182,000000	91,559200
1181,000000	91,557020
1180,000000	91,557225
1179,000000	91,562297
1178,000000	91,568697
1177,000000	91,567395
1176,000000	91,560741
1175,000000	91,554289
1174,000000	91,549860
1173,000000	91,545535
1172,000000	91,548531
1171,000000	91,543822
1170,000000	91,543637
1169,000000	91,547410
1168,000000	91,551930
1167,000000	91,555043
1166,000000	91,564989
1165,000000	91,565742
1164,000000	91,566493
1163,000000	91,565364
1162,000000	91,566926
1161,000000	91,570270
1160,000000	91,573867
1159,000000	91,566507
1158,000000	91,563494
1157,000000	91,561132
1156,000000	91,551921
1155,000000	91,558294
1154,000000	91,556914
1153,000000	91,558352
1152,000000	91,565914
1151,000000	91,558980
1150,000000	91,552350
1149,000000	91,559421
1148,000000	91,560142
1147,000000	91,557160
1146,000000	91,554868
1145,000000	91,549390
1144,000000	91,547250
1143,000000	91,551707
1142,000000	91,550448
1141,000000	91,551174
1140,000000	91,548070
1139,000000	91,547110
1138,000000	91,538091
1137,000000	91,539824
1136,000000	91,545175
1135,000000	91,548238
1134,000000	91,561699
1133,000000	91,559712
1132,000000	91,550300
1131,000000	91,542596
1130,000000	91,546269
1129,000000	91,547819
1128,000000	91,543954
1127,000000	91,531766
1126,000000	91,526007
1125,000000	91,513323
1124,000000	91,512495
1123,000000	91,512289
1122,000000	91,509242
1121,000000	91,505334
1120,000000	91,501903
1119,000000	91,507676
1118,000000	91,518937
1117,000000	91,521295
1116,000000	91,520655
1115,000000	91,524009
1114,000000	91,526862
1113,000000	91,518022
1112,000000	91,520305
1111,000000	91,517345
1110,000000	91,517163
1109,000000	91,516689
1108,000000	91,522599
1107,000000	91,535787
1106,000000	91,542232
1105,000000	91,543528
1104,000000	91,550770
1103,000000	91,552297
1102,000000	91,546866
1101,000000	91,547276
1100,000000	91,548586
1099,000000	91,545358
1098,000000	91,541940
1097,000000	91,544138
1096,000000	91,550185
1095,000000	91,552852
1094,000000	91,550063
1093,000000	91,552538
1092,000000	91,553261
1091,000000	91,554361
1090,000000	91,552069
1089,000000	91,548561
1088,000000	91,544285
1087,000000	91,540617
1086,000000	91,537101
1085,000000	91,533661
1084,000000	91,533214
1083,000000	91,531182
1082,000000	91,528219
1081,000000	91,528495
1080,000000	91,530076
1079,000000	91,532450
1078,000000	91,535791
1077,000000	91,535320
1076,000000	91,534595
1075,000000	91,535807
1074,000000	91,524654
1073,000000	91,510788
1072,000000	91,506408
1071,000000	91,502564
1070,000000	91,500919
1069,000000	91,514142
1068,000000	91,526169
1067,000000	91,531803
1066,000000	91,536879
1065,000000	91,539168
1064,000000	91,532304
1063,000000	91,526222
1062,000000	91,524009
1061,000000	91,525686
1060,000000	91,526888
1059,000000	91,529809
1058,000000	91,537291
1057,000000	91,547654
1056,000000	91,545839
1055,000000	91,533734
1054,000000	91,530613
1053,000000	91,538405
1052,000000	91,537679
1051,000000	91,526523
1050,000000	91,517954
1049,000000	91,512567
1048,000000	91,509763
1047,000000	91,516308
1046,000000	91,517346
1045,000000	91,511757
1044,000000	91,507637
1043,000000	91,505196
1042,000000	91,505968
1041,000000	91,505449
1040,000000	91,505410
1039,000000	91,511180
1038,000000	91,513387
1037,000000	91,507511
1036,000000	91,505936
1035,000000	91,508268
1034,000000	91,507198
1033,000000	91,508160
1032,000000	91,512638
1031,000000	91,510690
1030,000000	91,503141
1029,000000	91,500256
1028,000000	91,498837
1027,000000	91,493246
1026,000000	91,488567
1025,000000	91,486181
1024,000000	91,481810
1023,000000	91,477975
1022,000000	91,476747
1021,000000	91,482518
1020,000000	91,484860
1019,000000	91,485487
1018,000000	91,490467
1017,000000	91,489372
1016,000000	91,480856
1015,000000	91,473496
1014,000000	91,474254
1013,000000	91,478983
1012,000000	91,478719
1011,000000	91,475892
1010,000000	91,465630
1009,000000	91,450058
1008,000000	91,443225
1007,000000	91,447907
1006,000000	91,444060
1005,000000	91,435127
1004,000000	91,435227
1003,000000	91,435088
1002,000000	91,442695
1001,000000	91,454984
1000,000000	91,444831
999,000000	91,435388
998,000000	91,435025
997,000000	91,436914
996,000000	91,443796
995,000000	91,449624
994,000000	91,452739
993,000000	91,452337
992,000000	91,449702
991,000000	91,448541
990,000000	91,453829
989,000000	91,461838
988,000000	91,461521
987,000000	91,463333
986,000000	91,461646
985,000000	91,457565
984,000000	91,452447
983,000000	91,451763
982,000000	91,449339
981,000000	91,447217
980,000000	91,449628
979,000000	91,453719
978,000000	91,450252
977,000000	91,448030
976,000000	91,447919
975,000000	91,442804
974,000000	91,447940
973,000000	91,447697
972,000000	91,446403
971,000000	91,446286
970,000000	91,444328
969,000000	91,438449
968,000000	91,434171
967,000000	91,429265
966,000000	91,431279
965,000000	91,436381
964,000000	91,438523
963,000000	91,438082
962,000000	91,438987
961,000000	91,436830
960,000000	91,439973
959,000000	91,447495
958,000000	91,459737
957,000000	91,460958
956,000000	91,459010
955,000000	91,458401
954,000000	91,448291
953,000000	91,432048
952,000000	91,425005
951,000000	91,428395
950,000000	91,421052
949,000000	91,414449
948,000000	91,420303
947,000000	91,409886
946,000000	91,397618
945,000000	91,398428
944,000000	91,396885
943,000000	91,392846
942,000000	91,387136
941,000000	91,379222
940,000000	91,361865
939,000000	91,364521
938,000000	91,368569
937,000000	91,367661
936,000000	91,350205
935,000000	91,326328
934,000000	91,330352
933,000000	91,339955
932,000000	91,341878
931,000000	91,338454
930,000000	91,339675
929,000000	91,339922
928,000000	91,340569
927,000000	91,350087
926,000000	91,339301
925,000000	91,333923
924,000000	91,333559
923,000000	91,325832
922,000000	91,311448
921,000000	91,318765
920,000000	91,320118
919,000000	91,319980
918,000000	91,316817
917,000000	91,306773
916,000000	91,304236
915,000000	91,294157
914,000000	91,281952
913,000000	91,277513
912,000000	91,286216
911,000000	91,291829
910,000000	91,287180
909,000000	91,283424
908,000000	91,275774
907,000000	91,274986
906,000000	91,279934
905,000000	91,267710
904,000000	91,258462
903,000000	91,250468
902,000000	91,248168
901,000000	91,251499
900,000000	91,236641
899,000000	91,237970
898,000000	91,240033
897,000000	91,237985
896,000000	91,238714
895,000000	91,226506
894,000000	91,216416
893,000000	91,213191
892,000000	91,200364
891,000000	91,198752
890,000000	91,205550
889,000000	91,210169
888,000000	91,201120
887,000000	91,198812
886,000000	91,192445
885,000000	91,179792
884,000000	91,178722
883,000000	91,162826
882,000000	91,167714
881,000000	91,167528
880,000000	91,155752
879,000000	91,143225
878,000000	91,143263
877,000000	91,143320
876,000000	91,142567
875,000000	91,156254
874,000000	91,160423
873,000000	91,159903
872,000000	91,155555
871,000000	91,148384
870,000000	91,157471
869,000000	91,159905
868,000000	91,159517
867,000000	91,162879
866,000000	91,149238
865,000000	91,128424
864,000000	91,137986
863,000000	91,113926
862,000000	91,117525
861,000000	91,116557
860,000000	91,509815
859,000000	91,357377
858,000000	91,539039
857,000000	91,476190
856,000000	91,515550
855,000000	91,498247
854,000000	91,446727
853,000000	91,528252
852,000000	91,515112
851,000000	91,518830
850,000000	91,540317
849,000000	91,480951
848,000000	91,506880
847,000000	91,490969
846,000000	91,530738
845,000000	91,483679
844,000000	91,460637
843,000000	91,472694
842,000000	91,463898
841,000000	91,451988
840,000000	91,468933
839,000000	91,464448
838,000000	91,450964
837,000000	91,455707
836,000000	91,431898
835,000000	91,456577
834,000000	91,469901
833,000000	91,424532
832,000000	91,416921
831,000000	91,421626
830,000000	91,410772
829,000000	91,409318
828,000000	91,415226
827,000000	91,406184
826,000000	91,402449
825,000000	91,346824
824,000000	91,364140
823,000000	91,357087
822,000000	91,364077
821,000000	91,417682
820,000000	91,367345
819,000000	91,379125
818,000000	91,368758
817,000000	91,337261
816,000000	91,325239
815,000000	91,334152
814,000000	91,312716
813,000000	91,344083
812,000000	91,366688
811,000000	91,340242
810,000000	91,309956
809,000000	91,325328
808,000000	91,338944
807,000000	91,365481
806,000000	91,355246
805,000000	91,330799
804,000000	91,351091
803,000000	91,336557
802,000000	91,346311
801,000000	91,388260
800,000000	91,408489
799,000000	91,376263
798,000000	91,389863
797,000000	91,390400
796,000000	91,379306
795,000000	91,373419
794,000000	91,368540
793,000000	91,365279
792,000000	91,356544
791,000000	91,332701
790,000000	91,364144
789,000000	91,382157
788,000000	91,355046
787,000000	91,357957
786,000000	91,344057
785,000000	91,359386
784,000000	91,345391
783,000000	91,354842
782,000000	91,393577
781,000000	91,389452
780,000000	91,381010
779,000000	91,358878
778,000000	91,369053
777,000000	91,376513
776,000000	91,364824
775,000000	91,380157
774,000000	91,395879
773,000000	91,365219
772,000000	91,364816
771,000000	91,365789
770,000000	91,369459
769,000000	91,365492
768,000000	91,363020
767,000000	91,379172
766,000000	91,375647
765,000000	91,358998
764,000000	91,369293
763,000000	91,355099
762,000000	91,363284
761,000000	91,354565
760,000000	91,346814
759,000000	91,346569
758,000000	91,338777
757,000000	91,370760
756,000000	91,392104
755,000000	91,403468
754,000000	91,393921
753,000000	91,365146
752,000000	91,360568
751,000000	91,366188
750,000000	91,375162
749,000000	91,361520
748,000000	91,382758
747,000000	91,392575
746,000000	91,377908
745,000000	91,381234
744,000000	91,387008
743,000000	91,383335
742,000000	91,346627
741,000000	91,344104
740,000000	91,360739
739,000000	91,379016
738,000000	91,385196
737,000000	91,368173
736,000000	91,373385
735,000000	91,378513
734,000000	91,373015
733,000000	91,383070
732,000000	91,388240
731,000000	91,391080
730,000000	91,384300
729,000000	91,373508
728,000000	91,363296
727,000000	91,361799
726,000000	91,360104
725,000000	91,357590
724,000000	91,359170
723,000000	91,363282
722,000000	91,377400
721,000000	91,382846
720,000000	91,388337
719,000000	91,388876
718,000000	91,374402
717,000000	91,358370
716,000000	91,354011
715,000000	91,350942
714,000000	91,334580
713,000000	91,324022
712,000000	91,335588
711,000000	91,344525
710,000000	91,336227
709,000000	91,338587
708,000000	91,341138
707,000000	91,352990
706,000000	91,353048
705,000000	91,334975
704,000000	91,349309
703,000000	91,369744
702,000000	91,361016
701,000000	91,354491
700,000000	91,350310
699,000000	91,346644
698,000000	91,343364
697,000000	91,345287
696,000000	91,349916
695,000000	91,361302
694,000000	91,355863
693,000000	91,351496
692,000000	91,360203
691,000000	91,352517
690,000000	91,356842
689,000000	91,366336
688,000000	91,357778
687,000000	91,345609
686,000000	91,340361
685,000000	91,342921
684,000000	91,343021
683,000000	91,340971
682,000000	91,336383
681,000000	91,349963
680,000000	91,368421
679,000000	91,364119
678,000000	91,363961
677,000000	91,361774
676,000000	91,372597
675,000000	91,378692
674,000000	91,381059
673,000000	91,373386
672,000000	91,355606
671,000000	91,367158
670,000000	91,380765
669,000000	91,385616
668,000000	91,367167
667,000000	91,346828
666,000000	91,349064
665,000000	91,334628
664,000000	91,328443
663,000000	91,335770
662,000000	91,332229
661,000000	91,321045
660,000000	91,328122
659,000000	91,318856
658,000000	91,324488
657,000000	91,326582
656,000000	91,326477
655,000000	91,331610
654,000000	91,334211
653,000000	91,336281
652,000000	91,345229
651,000000	91,340619
650,000000	91,331978
649,000000	91,329770
648,000000	91,335312
647,000000	91,333067
646,000000	91,334414
645,000000	91,335260
644,000000	91,340341
643,000000	91,333150
642,000000	91,321045
641,000000	91,314307
640,000000	91,316889
639,000000	91,322321
638,000000	91,310465
637,000000	91,304205
636,000000	91,320865
635,000000	91,317690
634,000000	91,308364
633,000000	91,307531
632,000000	91,321427
631,000000	91,318064
630,000000	91,292508
629,000000	91,302719
628,000000	91,308204
627,000000	91,306809
626,000000	91,308871
625,000000	91,295578
624,000000	91,293742
623,000000	91,287376
622,000000	91,294336
621,000000	91,287765
620,000000	91,297088
619,000000	91,288111
618,000000	91,297676
617,000000	91,295622
616,000000	91,300834
615,000000	91,295084
614,000000	91,290890
613,000000	91,278467
612,000000	91,290134
611,000000	91,291594
610,000000	91,275945
609,000000	91,268877
608,000000	91,270571
607,000000	91,273616
606,000000	91,281466
605,000000	91,280863
604,000000	91,287461
603,000000	91,279794
602,000000	91,265765
601,000000	91,261851
600,000000	91,278179
599,000000	91,273806
598,000000	91,270439
597,000000	91,269427
596,000000	91,252184
595,000000	91,261541
594,000000	91,274584
593,000000	91,279604
592,000000	91,279941
591,000000	91,278264
590,000000	91,278860
589,000000	91,277165
588,000000	91,267709
587,000000	91,283013
586,000000	91,275884
585,000000	91,272919
584,000000	91,291095
583,000000	91,292325
582,000000	91,292332
581,000000	91,289223
580,000000	91,295269
579,000000	91,306129
578,000000	91,312390
577,000000	91,309284
576,000000	91,306788
575,000000	91,318368
574,000000	91,308856
573,000000	91,293214
572,000000	91,277328
571,000000	91,269809
570,000000	91,289615
569,000000	91,286541
568,000000	91,302909
567,000000	91,308650
566,000000	91,319799
565,000000	91,305781
564,000000	91,296383
563,000000	91,269310
562,000000	91,277533
561,000000	91,270177
560,000000	91,278655
559,000000	91,260999
558,000000	91,261534
557,000000	91,268750
556,000000	91,258219
555,000000	91,269418
554,000000	91,273610
553,000000	91,277157
552,000000	91,274608
551,000000	91,268838
550,000000	91,242901
549,000000	91,255154
548,000000	91,246051
547,000000	91,234229
546,000000	91,224662
545,000000	91,235174
544,000000	91,241669
543,000000	91,246667
542,000000	91,245767
541,000000	91,256456
540,000000	91,243835
539,000000	91,232643
538,000000	91,228819
537,000000	91,249181
536,000000	91,227110
535,000000	91,227149
534,000000	91,214302
533,000000	91,224998
532,000000	91,214361
531,000000	91,215597
530,000000	91,220587
529,000000	91,202293
528,000000	91,199498
527,000000	91,197572
526,000000	91,202364
525,000000	91,203002
524,000000	91,190757
523,000000	91,183540
522,000000	91,186582
521,000000	91,186037
520,000000	91,199945
519,000000	91,190262
518,000000	91,197903
517,000000	91,197211
516,000000	91,197447
515,000000	91,186316
514,000000	91,188708
513,000000	91,182531
512,000000	91,164772
511,000000	91,141998
510,000000	91,129738
509,000000	91,121348
508,000000	91,133156
507,000000	91,114611
506,000000	91,107943
505,000000	91,100005
504,000000	91,102625
503,000000	91,119828
502,000000	91,124199
501,000000	91,114132
500,000000	91,116341
499,000000	91,122410
498,000000	91,141520
497,000000	91,129004
496,000000	91,107481
495,000000	91,110678
494,000000	91,110630
493,000000	91,109824
492,000000	91,102515
491,000000	91,092372
490,000000	91,095834
489,000000	91,104039
488,000000	91,115620
487,000000	91,125615
486,000000	91,122153
485,000000	91,119249
484,000000	91,112854
483,000000	91,120075
482,000000	91,118008
481,000000	91,132912
480,000000	91,145539
479,000000	91,141864
478,000000	91,137665
477,000000	91,141336
476,000000	91,152304
475,000000	91,163226
474,000000	91,160527
473,000000	91,162796
472,000000	91,167548
471,000000	91,161352
470,000000	91,144813
469,000000	91,138559
468,000000	91,144094
467,000000	91,142850
466,000000	91,147573
465,000000	91,159569
464,000000	91,154953
463,000000	91,160600
462,000000	91,150536
461,000000	91,135397
460,000000	91,129976
459,000000	91,110301
458,000000	91,105483
457,000000	91,094190
456,000000	91,084835
455,000000	91,078349
454,000000	91,070902
453,000000	91,063449
452,000000	91,052865
451,000000	91,055409
450,000000	91,057091
449,000000	91,057473
448,000000	91,054294
447,000000	91,039780
446,000000	91,026683
445,000000	91,030795
444,000000	91,032770
443,000000	91,029497
442,000000	91,028930
441,000000	91,017089
440,000000	91,012718
439,000000	91,010072
438,000000	90,996562
437,000000	90,994576
436,000000	90,990392
435,000000	90,988463
434,000000	90,995877
433,000000	90,986431
432,000000	90,977462
431,000000	90,969401
430,000000	90,965581
429,000000	90,970165
428,000000	90,963803
427,000000	90,953286
426,000000	90,946471
425,000000	90,931001
424,000000	90,921036
423,000000	90,932989
422,000000	90,937048
421,000000	90,929772
420,000000	90,918759
419,000000	90,919049
418,000000	90,920379
417,000000	90,918137
416,000000	90,912520
415,000000	90,900073
414,000000	90,902859
413,000000	90,915934
412,000000	90,920878
411,000000	90,913789
410,000000	90,914688
409,000000	90,916930
408,000000	90,899942
407,000000	90,905496
406,000000	90,912855
405,000000	90,894320
404,000000	90,884305
403,000000	90,893729
402,000000	90,891099
401,000000	90,883274
400,000000	90,889950
399,000000	90,878230
398,000000	90,860231
397,000000	90,871836
396,000000	90,884841
395,000000	90,871996
394,000000	90,861391
393,000000	90,846436
392,000000	90,839224
391,000000	90,834611
390,000000	90,845615
389,000000	90,841596
388,000000	90,819015
387,000000	90,814591
386,000000	90,817681
385,000000	90,814943
384,000000	90,802843
383,000000	90,796209
382,000000	90,794603
381,000000	90,786508
380,000000	90,781027
379,000000	90,826235
378,000000	90,777711
377,000000	90,740865
376,000000	90,803746
375,000000	90,828294
374,000000	90,810132
373,000000	90,848791
372,000000	90,846672
371,000000	90,813029
370,000000	90,764957
369,000000	90,795472
368,000000	90,811043
367,000000	90,833663
366,000000	90,807674
365,000000	90,757530
364,000000	90,744908
363,000000	90,782055
362,000000	90,753466
361,000000	90,758774
360,000000	90,761167
359,000000	90,751016
358,000000	90,730945
357,000000	90,756858
356,000000	90,721434
355,000000	90,731371
354,000000	90,726501
353,000000	90,685477
352,000000	90,688468
351,000000	90,720166
350,000000	90,727520
349,000000	90,677991
348,000000	90,701674
347,000000	90,626608
346,000000	90,676243
345,000000	90,688237
344,000000	90,697689
343,000000	90,691049
342,000000	90,678022
341,000000	90,678398
340,000000	90,644815
339,000000	90,635708
338,000000	90,650974
337,000000	90,585389
336,000000	90,616629
335,000000	90,667711
334,000000	90,610468
333,000000	90,584099
332,000000	90,591407
331,000000	90,530383
330,000000	90,571597
329,000000	90,580048
328,000000	90,595746
327,000000	90,494261
326,000000	90,555406
325,000000	90,434395
324,000000	90,558941
323,000000	90,568899
322,000000	90,557078
321,000000	90,495797
320,000000	90,511973
319,000000	90,360491
318,000000	90,319115
317,000000	90,328728
316,000000	90,305496
315,000000	90,315389
314,000000	90,314692
313,000000	90,299976
312,000000	90,305867
311,000000	90,249715
310,000000	90,246009
309,000000	90,274933
308,000000	90,256408
307,000000	90,225346
306,000000	90,222163
305,000000	90,222450
304,000000	90,220229
303,000000	90,224675
302,000000	90,225455
301,000000	90,197367
300,000000	90,177499
299,000000	90,185850
298,000000	90,195335
297,000000	90,178048
296,000000	90,176126
295,000000	90,171530
294,000000	90,165421
293,000000	90,149990
292,000000	90,166807
291,000000	90,148505
290,000000	90,156981
289,000000	90,130973
288,000000	90,120754
287,000000	90,126552
286,000000	90,142539
285,000000	90,132590
284,000000	90,124492
283,000000	90,130898
282,000000	90,095388
281,000000	90,058698
280,000000	90,081545
279,000000	90,067604
278,000000	90,060014
277,000000	90,034352
276,000000	90,020999
275,000000	90,005597
274,000000	89,990851
273,000000	89,955159
272,000000	89,950467
271,000000	89,950489
270,000000	89,918436
269,000000	89,912435
268,000000	89,883896
267,000000	89,901837
266,000000	89,893450
265,000000	89,884587
264,000000	89,839893
263,000000	89,811344
262,000000	89,775891
261,000000	89,773615
260,000000	89,763335
259,000000	89,739833
258,000000	89,744246
257,000000	89,690637
256,000000	89,668514
255,000000	89,667443
254,000000	89,634546
253,000000	89,620054
252,000000	89,607197
251,000000	89,583259
250,000000	89,581843
249,000000	89,587909
248,000000	89,568938
247,000000	89,523492
246,000000	89,492981
245,000000	89,450522
244,000000	89,425199
243,000000	89,409833
242,000000	89,385630
241,000000	89,372962
240,000000	89,347628
239,000000	89,336026
238,000000	89,304392
237,000000	89,298115
236,000000	89,275258
235,000000	89,250531
234,000000	89,211076
233,000000	89,168675
232,000000	89,120355
231,000000	89,082587
230,000000	89,028469
229,000000	89,010391
228,000000	88,976395
227,000000	88,933028
226,000000	88,905499
225,000000	88,872973
224,000000	88,827540
223,000000	88,789239
222,000000	88,722889
221,000000	88,622153
220,000000	88,548549
219,000000	88,465977
218,000000	88,388405
217,000000	88,347912
216,000000	88,304954
215,000000	88,243421
214,000000	88,204665
213,000000	88,129814
212,000000	88,036504
211,000000	87,944506
210,000000	87,856145
209,000000	87,765372
208,000000	87,692547
207,000000	87,614015
206,000000	87,521856
205,000000	87,410398
204,000000	87,272398
203,000000	87,129876
202,000000	86,954758
201,000000	86,789083
200,000000	86,585482
