PE UV       SUBTECH     SPECTRUM    ASCII       PEDS        4.00        
   -1
sampleV.Sample.asc
22/01/27
15:54:30.00
22/01/27
15:54:30.00
Administrator

200,000000
1
Lambda 1050
1050L1808311
PerkinElmer UV WinLab 6.4.0.973 / 2.02.11 Lambda 900 UV/VIS/NIR, May 23 2018 11:23:04

0
0
3350/servo 1800,8/servo 860,8/2
0
0
UV/VIS
1
1
1
CommonBeamDepol,RBeamAtt,SBeamAtt,uv/vis/nir detector, TDS WB InGaAs Detector
0
0
0
0
Program
Program
3350/servo 1800,8/servo 860,8/2
3350/0,2 1800,8/0,2 860,8/0,2
3350/0,2 1800,8/0,2 860,8/0,2
0
3350/1,00 1800,8/1,00
 
 
 
0
 
860,8
319,2
1800,8 860,8
Front
100
on
S:100 R:100
 
0
0
0
 
0
 
 
 
0
 
 
0
0
0
0
0
 
 
 
 
0
0


0
0
#HDR
-1
-1
#GR
nm
%T
1.0
0.0
2000,000000
-1,000000
1801
8
91,458760
-0,010295
#DATA
2000,000000	88,545491
1999,000000	88,563891
1998,000000	88,566795
1997,000000	88,573892
1996,000000	88,546482
1995,000000	88,566575
1994,000000	88,556913
1993,000000	88,574985
1992,000000	88,591729
1991,000000	88,605781
1990,000000	88,573885
1989,000000	88,540002
1988,000000	88,516451
1987,000000	88,537394
1986,000000	88,536004
1985,000000	88,540538
1984,000000	88,530676
1983,000000	88,534539
1982,000000	88,534832
1981,000000	88,535198
1980,000000	88,529725
1979,000000	88,535792
1978,000000	88,514601
1977,000000	88,535799
1976,000000	88,515802
1975,000000	88,515052
1974,000000	88,519437
1973,000000	88,513478
1972,000000	88,514932
1971,000000	88,554968
1970,000000	88,540092
1969,000000	88,530963
1968,000000	88,516553
1967,000000	88,524838
1966,000000	88,517229
1965,000000	88,516747
1964,000000	88,537105
1963,000000	88,537921
1962,000000	88,531595
1961,000000	88,536221
1960,000000	88,532433
1959,000000	88,506308
1958,000000	88,499599
1957,000000	88,526328
1956,000000	88,536440
1955,000000	88,531595
1954,000000	88,541454
1953,000000	88,556445
1952,000000	88,532327
1951,000000	88,540343
1950,000000	88,532714
1949,000000	88,532915
1948,000000	88,506344
1947,000000	88,514752
1946,000000	88,497863
1945,000000	88,479369
1944,000000	88,482351
1943,000000	88,489309
1942,000000	88,472562
1941,000000	88,431438
1940,000000	88,413053
1939,000000	88,430590
1938,000000	88,459415
1937,000000	88,468945
1936,000000	88,487818
1935,000000	88,491049
1934,000000	88,501062
1933,000000	88,495752
1932,000000	88,484564
1931,000000	88,493620
1930,000000	88,470378
1929,000000	88,472239
1928,000000	88,466649
1927,000000	88,486589
1926,000000	88,482282
1925,000000	88,479273
1924,000000	88,499875
1923,000000	88,514461
1922,000000	88,523944
1921,000000	88,521193
1920,000000	88,517899
1919,000000	88,512988
1918,000000	88,525968
1917,000000	88,543395
1916,000000	88,514665
1915,000000	88,505931
1914,000000	88,514017
1913,000000	88,482913
1912,000000	88,453356
1911,000000	88,440740
1910,000000	88,460240
1909,000000	88,474862
1908,000000	88,465933
1907,000000	88,401171
1906,000000	88,390846
1905,000000	88,402589
1904,000000	88,429366
1903,000000	88,447809
1902,000000	88,437985
1901,000000	88,430847
1900,000000	88,416231
1899,000000	88,439459
1898,000000	88,483665
1897,000000	88,540330
1896,000000	88,540034
1895,000000	88,512110
1894,000000	88,482481
1893,000000	88,487083
1892,000000	88,492569
1891,000000	88,436859
1890,000000	88,435605
1889,000000	88,480870
1888,000000	88,524967
1887,000000	88,509369
1886,000000	88,487108
1885,000000	88,465841
1884,000000	88,444235
1883,000000	88,455531
1882,000000	88,472812
1881,000000	88,508515
1880,000000	88,514644
1879,000000	88,481016
1878,000000	88,445536
1877,000000	88,439217
1876,000000	88,483944
1875,000000	88,541998
1874,000000	88,556290
1873,000000	88,534251
1872,000000	88,518382
1871,000000	88,517800
1870,000000	88,488239
1869,000000	88,473285
1868,000000	88,483832
1867,000000	88,491364
1866,000000	88,498013
1865,000000	88,492549
1864,000000	88,464913
1863,000000	88,467566
1862,000000	88,476421
1861,000000	88,428102
1860,000000	88,403872
1859,000000	88,437834
1858,000000	88,490916
1857,000000	88,534030
1856,000000	88,522995
1855,000000	88,484985
1854,000000	88,479323
1853,000000	88,499362
1852,000000	88,515971
1851,000000	88,515228
1850,000000	88,495309
1849,000000	88,454745
1848,000000	88,408549
1847,000000	88,426481
1846,000000	88,491589
1845,000000	88,532176
1844,000000	88,516986
1843,000000	88,491491
1842,000000	88,486104
1841,000000	88,464624
1840,000000	88,454158
1839,000000	88,437198
1838,000000	88,424763
1837,000000	88,402665
1836,000000	88,389060
1835,000000	88,418543
1834,000000	88,451619
1833,000000	88,427758
1832,000000	88,348904
1831,000000	88,270606
1830,000000	88,269167
1829,000000	88,336815
1828,000000	88,414299
1827,000000	88,439125
1826,000000	88,419068
1825,000000	88,421847
1824,000000	88,412469
1823,000000	88,397462
1822,000000	88,387551
1821,000000	88,393205
1820,000000	88,429142
1819,000000	88,459647
1818,000000	88,454377
1817,000000	88,446340
1816,000000	88,469335
1815,000000	88,479592
1814,000000	88,400017
1813,000000	88,342811
1812,000000	88,311426
1811,000000	88,276998
1810,000000	88,275213
1809,000000	88,285715
1808,000000	88,265643
1807,000000	88,240854
1806,000000	88,246725
1805,000000	88,250135
1804,000000	88,232588
1803,000000	88,212968
1802,000000	88,186441
1801,000000	88,163944
1800,000000	88,556530
1799,000000	88,548055
1798,000000	88,556409
1797,000000	88,558767
1796,000000	88,568787
1795,000000	88,570913
1794,000000	88,569985
1793,000000	88,573033
1792,000000	88,562904
1791,000000	88,560623
1790,000000	88,567553
1789,000000	88,590105
1788,000000	88,600974
1787,000000	88,606473
1786,000000	88,613793
1785,000000	88,606084
1784,000000	88,607107
1783,000000	88,599251
1782,000000	88,601996
1781,000000	88,595454
1780,000000	88,585412
1779,000000	88,600447
1778,000000	88,614107
1777,000000	88,627192
1776,000000	88,637231
1775,000000	88,639101
1774,000000	88,642518
1773,000000	88,632714
1772,000000	88,634734
1771,000000	88,634479
1770,000000	88,632621
1769,000000	88,624312
1768,000000	88,633236
1767,000000	88,627157
1766,000000	88,623494
1765,000000	88,622064
1764,000000	88,620668
1763,000000	88,628637
1762,000000	88,646568
1761,000000	88,647980
1760,000000	88,639273
1759,000000	88,636819
1758,000000	88,637905
1757,000000	88,643656
1756,000000	88,645373
1755,000000	88,655309
1754,000000	88,660105
1753,000000	88,650554
1752,000000	88,628309
1751,000000	88,630740
1750,000000	88,645371
1749,000000	88,654000
1748,000000	88,647306
1747,000000	88,632174
1746,000000	88,620459
1745,000000	88,627318
1744,000000	88,638370
1743,000000	88,629505
1742,000000	88,609324
1741,000000	88,604326
1740,000000	88,613025
1739,000000	88,636356
1738,000000	88,652097
1737,000000	88,640936
1736,000000	88,623685
1735,000000	88,611831
1734,000000	88,644624
1733,000000	88,711628
1732,000000	88,765012
1731,000000	88,775956
1730,000000	88,764507
1729,000000	88,753142
1728,000000	88,754121
1727,000000	88,771263
1726,000000	88,759447
1725,000000	88,736057
1724,000000	88,733195
1723,000000	88,727111
1722,000000	88,728589
1721,000000	88,733666
1720,000000	88,737750
1719,000000	88,740901
1718,000000	88,736927
1717,000000	88,737350
1716,000000	88,737471
1715,000000	88,738364
1714,000000	88,736438
1713,000000	88,731779
1712,000000	88,731659
1711,000000	88,736491
1710,000000	88,740615
1709,000000	88,747464
1708,000000	88,738315
1707,000000	88,725006
1706,000000	88,722419
1705,000000	88,728529
1704,000000	88,736302
1703,000000	88,740428
1702,000000	88,734943
1701,000000	88,720388
1700,000000	88,727308
1699,000000	88,784402
1698,000000	88,843793
1697,000000	88,842275
1696,000000	88,837204
1695,000000	88,827743
1694,000000	88,813312
1693,000000	88,815506
1692,000000	88,815472
1691,000000	88,816617
1690,000000	88,817746
1689,000000	88,816279
1688,000000	88,818824
1687,000000	88,820215
1686,000000	88,817201
1685,000000	88,810928
1684,000000	88,817920
1683,000000	88,822860
1682,000000	88,817110
1681,000000	88,810639
1680,000000	88,803436
1679,000000	88,799609
1678,000000	88,792206
1677,000000	88,786916
1676,000000	88,791235
1675,000000	88,793101
1674,000000	88,785650
1673,000000	88,777715
1672,000000	88,773078
1671,000000	88,772327
1670,000000	88,781664
1669,000000	88,791458
1668,000000	88,785164
1667,000000	88,776574
1666,000000	88,773204
1665,000000	88,776463
1664,000000	88,779834
1663,000000	88,779206
1662,000000	88,775008
1661,000000	88,774188
1660,000000	88,770921
1659,000000	88,761241
1658,000000	88,758068
1657,000000	88,756598
1656,000000	88,750004
1655,000000	88,745379
1654,000000	88,741249
1653,000000	88,734569
1652,000000	88,733811
1651,000000	88,731071
1650,000000	88,722341
1649,000000	88,713754
1648,000000	88,709526
1647,000000	88,714488
1646,000000	88,722076
1645,000000	88,731058
1644,000000	88,734528
1643,000000	88,725736
1642,000000	88,722702
1641,000000	88,719227
1640,000000	88,714274
1639,000000	88,710181
1638,000000	88,704984
1637,000000	88,699993
1636,000000	88,700781
1635,000000	88,704519
1634,000000	88,706839
1633,000000	88,699324
1632,000000	88,689945
1631,000000	88,682840
1630,000000	88,685731
1629,000000	88,690316
1628,000000	88,690007
1627,000000	88,685913
1626,000000	88,676786
1625,000000	88,668566
1624,000000	88,661083
1623,000000	88,649356
1622,000000	88,641997
1621,000000	88,635387
1620,000000	88,629011
1619,000000	88,623842
1618,000000	88,610344
1617,000000	88,590285
1616,000000	88,581471
1615,000000	88,585840
1614,000000	88,583896
1613,000000	88,575325
1612,000000	88,569596
1611,000000	88,563367
1610,000000	88,562465
1609,000000	88,565982
1608,000000	88,571864
1607,000000	88,567902
1606,000000	88,558514
1605,000000	88,554979
1604,000000	88,548491
1603,000000	88,538809
1602,000000	88,538499
1601,000000	88,536884
1600,000000	88,540264
1599,000000	88,540431
1598,000000	88,539866
1597,000000	88,527939
1596,000000	88,507198
1595,000000	88,495328
1594,000000	88,494270
1593,000000	88,487091
1592,000000	88,476490
1591,000000	88,468928
1590,000000	88,462783
1589,000000	88,461398
1588,000000	88,463161
1587,000000	88,466032
1586,000000	88,444569
1585,000000	88,422791
1584,000000	88,422123
1583,000000	88,425458
1582,000000	88,421673
1581,000000	88,412750
1580,000000	88,397356
1579,000000	88,388023
1578,000000	88,384272
1577,000000	88,390582
1576,000000	88,387100
1575,000000	88,373826
1574,000000	88,358161
1573,000000	88,352975
1572,000000	88,352998
1571,000000	88,354335
1570,000000	88,356678
1569,000000	88,351213
1568,000000	88,340203
1567,000000	88,323978
1566,000000	88,305255
1565,000000	88,295965
1564,000000	88,286569
1563,000000	88,285461
1562,000000	88,281641
1561,000000	88,276332
1560,000000	88,271009
1559,000000	88,265509
1558,000000	88,255852
1557,000000	88,244668
1556,000000	88,227313
1555,000000	88,213155
1554,000000	88,203816
1553,000000	88,193734
1552,000000	88,187684
1551,000000	88,180905
1550,000000	88,172122
1549,000000	88,166120
1548,000000	88,163948
1547,000000	88,155601
1546,000000	88,148179
1545,000000	88,147335
1544,000000	88,138284
1543,000000	88,123040
1542,000000	88,114538
1541,000000	88,108327
1540,000000	88,100558
1539,000000	88,084273
1538,000000	88,075381
1537,000000	88,074176
1536,000000	88,066219
1535,000000	88,056793
1534,000000	88,046294
1533,000000	88,030619
1532,000000	88,011694
1531,000000	87,996452
1530,000000	87,985000
1529,000000	87,977284
1528,000000	87,969964
1527,000000	87,963926
1526,000000	87,962620
1525,000000	87,958978
1524,000000	87,949326
1523,000000	87,933561
1522,000000	87,928457
1521,000000	87,928347
1520,000000	87,930231
1519,000000	87,920973
1518,000000	87,917780
1517,000000	87,906920
1516,000000	87,887819
1515,000000	87,866682
1514,000000	87,859715
1513,000000	87,858105
1512,000000	87,853127
1511,000000	87,857137
1510,000000	87,846936
1509,000000	87,834648
1508,000000	87,817618
1507,000000	87,807051
1506,000000	87,794327
1505,000000	87,791806
1504,000000	87,793690
1503,000000	87,787034
1502,000000	87,784003
1501,000000	87,771312
1500,000000	87,761831
1499,000000	87,752008
1498,000000	87,744052
1497,000000	87,735095
1496,000000	87,733011
1495,000000	87,721868
1494,000000	87,704290
1493,000000	87,688624
1492,000000	87,684291
1491,000000	87,672323
1490,000000	87,681345
1489,000000	87,669064
1488,000000	87,652090
1487,000000	87,640622
1486,000000	87,635715
1485,000000	87,626608
1484,000000	87,615407
1483,000000	87,603670
1482,000000	87,597056
1481,000000	87,580189
1480,000000	87,567726
1479,000000	87,556540
1478,000000	87,533099
1477,000000	87,514271
1476,000000	87,504274
1475,000000	87,490480
1474,000000	87,472263
1473,000000	87,461063
1472,000000	87,459337
1471,000000	87,434712
1470,000000	87,419863
1469,000000	87,407168
1468,000000	87,401480
1467,000000	87,399177
1466,000000	87,385996
1465,000000	87,380485
1464,000000	87,364560
1463,000000	87,348629
1462,000000	87,350052
1461,000000	87,348250
1460,000000	87,352218
1459,000000	87,349807
1458,000000	87,346855
1457,000000	87,337275
1456,000000	87,349070
1455,000000	87,357776
1454,000000	87,354009
1453,000000	87,364649
1452,000000	87,272575
1451,000000	87,254605
1450,000000	87,244209
1449,000000	87,237163
1448,000000	87,238782
1447,000000	87,223542
1446,000000	87,196065
1445,000000	87,185692
1444,000000	87,174158
1443,000000	87,156704
1442,000000	87,147451
1441,000000	87,138603
1440,000000	87,127119
1439,000000	87,115484
1438,000000	87,108381
1437,000000	87,100049
1436,000000	87,082644
1435,000000	87,063738
1434,000000	87,049975
1433,000000	87,040803
1432,000000	87,034926
1431,000000	87,027871
1430,000000	87,018008
1429,000000	87,007087
1428,000000	87,000578
1427,000000	86,993855
1426,000000	86,977314
1425,000000	86,959298
1424,000000	86,943312
1423,000000	86,920625
1422,000000	86,879059
1421,000000	86,895730
1420,000000	86,927840
1419,000000	86,905986
1418,000000	86,896547
1417,000000	86,898330
1416,000000	86,885464
1415,000000	86,878783
1414,000000	86,870298
1413,000000	86,859798
1412,000000	86,851803
1411,000000	86,843273
1410,000000	86,832464
1409,000000	86,823030
1408,000000	86,804545
1407,000000	86,783732
1406,000000	86,765765
1405,000000	86,748566
1404,000000	86,739301
1403,000000	86,730889
1402,000000	86,718401
1401,000000	86,701302
1400,000000	86,697243
1399,000000	86,699833
1398,000000	86,700098
1397,000000	86,693018
1396,000000	86,681576
1395,000000	86,673306
1394,000000	86,663040
1393,000000	86,657326
1392,000000	86,651562
1391,000000	86,641987
1390,000000	86,631505
1389,000000	86,616447
1388,000000	86,603501
1387,000000	86,593172
1386,000000	86,584950
1385,000000	86,582297
1384,000000	86,580451
1383,000000	86,571661
1382,000000	86,559338
1381,000000	86,544081
1380,000000	86,532322
1379,000000	86,520475
1378,000000	86,504379
1377,000000	86,493707
1376,000000	86,494282
1375,000000	86,495197
1374,000000	86,497550
1373,000000	86,501911
1372,000000	86,492647
1371,000000	86,469244
1370,000000	86,447885
1369,000000	86,437945
1368,000000	86,425942
1367,000000	86,402896
1366,000000	86,377903
1365,000000	86,357433
1364,000000	86,334754
1363,000000	86,300317
1362,000000	86,267367
1361,000000	86,243397
1360,000000	86,230011
1359,000000	86,217790
1358,000000	86,203403
1357,000000	86,188692
1356,000000	86,172686
1355,000000	86,158033
1354,000000	86,151908
1353,000000	86,149534
1352,000000	86,138285
1351,000000	86,129164
1350,000000	86,126091
1349,000000	86,123139
1348,000000	86,114818
1347,000000	86,038436
1346,000000	85,973938
1345,000000	86,041482
1344,000000	86,182362
1343,000000	86,259925
1342,000000	86,180818
1341,000000	86,101642
1340,000000	86,101809
1339,000000	86,105029
1338,000000	86,101624
1337,000000	86,178332
1336,000000	86,241760
1335,000000	86,152814
1334,000000	86,082599
1333,000000	86,078863
1332,000000	86,071881
1331,000000	86,064068
1330,000000	86,052200
1329,000000	86,046386
1328,000000	86,041168
1327,000000	86,031806
1326,000000	86,024563
1325,000000	86,015594
1324,000000	86,002073
1323,000000	85,986866
1322,000000	86,042765
1321,000000	86,084737
1320,000000	85,994514
1319,000000	86,018974
1318,000000	86,074997
1317,000000	86,067689
1316,000000	86,055934
1315,000000	85,955566
1314,000000	85,889408
1313,000000	85,977414
1312,000000	86,029188
1311,000000	86,025062
1310,000000	86,013091
1309,000000	85,909079
1308,000000	85,844722
1307,000000	85,836653
1306,000000	85,825257
1305,000000	85,812286
1304,000000	85,796639
1303,000000	85,780427
1302,000000	85,773981
1301,000000	85,772591
1300,000000	85,766306
1299,000000	85,758944
1298,000000	85,752879
1297,000000	85,747797
1296,000000	85,742949
1295,000000	85,739878
1294,000000	85,826844
1293,000000	85,865872
1292,000000	85,859897
1291,000000	85,851027
1290,000000	85,770733
1289,000000	85,726966
1288,000000	85,717448
1287,000000	85,819853
1286,000000	85,853749
1285,000000	85,841030
1284,000000	85,838542
1283,000000	85,840992
1282,000000	85,836907
1281,000000	85,829328
1280,000000	85,820440
1279,000000	85,808593
1278,000000	85,800891
1277,000000	85,787804
1276,000000	85,776752
1275,000000	85,777803
1274,000000	85,761816
1273,000000	85,751555
1272,000000	85,746735
1271,000000	85,635668
1270,000000	85,595183
1269,000000	85,589829
1268,000000	85,587138
1267,000000	85,584686
1266,000000	85,655997
1265,000000	85,666837
1264,000000	85,548836
1263,000000	85,513081
1262,000000	85,506711
1261,000000	85,495057
1260,000000	85,606299
1259,000000	85,634155
1258,000000	85,627597
1257,000000	85,622374
1256,000000	85,617959
1255,000000	85,614343
1254,000000	85,613583
1253,000000	85,608594
1252,000000	85,600357
1251,000000	85,590648
1250,000000	85,582210
1249,000000	85,577208
1248,000000	85,565207
1247,000000	85,563326
1246,000000	85,556881
1245,000000	85,550613
1244,000000	85,553562
1243,000000	85,554959
1242,000000	85,547225
1241,000000	85,539752
1240,000000	85,530735
1239,000000	85,517828
1238,000000	85,396417
1237,000000	85,379361
1236,000000	85,373235
1235,000000	85,482576
1234,000000	85,493482
1233,000000	85,373839
1232,000000	85,355397
1231,000000	85,466888
1230,000000	85,474406
1229,000000	85,349664
1228,000000	85,326606
1227,000000	85,433093
1226,000000	85,444716
1225,000000	85,341375
1224,000000	85,337067
1223,000000	85,433438
1222,000000	85,435216
1221,000000	85,438123
1220,000000	85,439387
1219,000000	85,336011
1218,000000	85,322573
1217,000000	85,317531
1216,000000	85,305349
1215,000000	85,290330
1214,000000	85,281044
1213,000000	85,281482
1212,000000	85,281620
1211,000000	85,281061
1210,000000	85,279740
1209,000000	85,273993
1208,000000	85,270211
1207,000000	85,265869
1206,000000	85,248338
1205,000000	85,236096
1204,000000	85,239209
1203,000000	85,255695
1202,000000	85,258138
1201,000000	85,235616
1200,000000	85,327349
1199,000000	85,335496
1198,000000	85,331052
1197,000000	85,328927
1196,000000	85,320682
1195,000000	85,323058
1194,000000	85,328725
1193,000000	85,320767
1192,000000	85,317954
1191,000000	85,216767
1190,000000	85,262931
1189,000000	85,259986
1188,000000	85,255758
1187,000000	85,262885
1186,000000	85,244840
1185,000000	85,238405
1184,000000	85,246609
1183,000000	85,242219
1182,000000	85,240752
1181,000000	85,237774
1180,000000	85,226646
1179,000000	85,225417
1178,000000	85,225588
1177,000000	85,220392
1176,000000	85,210193
1175,000000	85,206668
1174,000000	85,201660
1173,000000	85,203590
1172,000000	85,200806
1171,000000	85,189014
1170,000000	85,179911
1169,000000	85,183915
1168,000000	85,189626
1167,000000	85,186494
1166,000000	85,190380
1165,000000	85,178557
1164,000000	85,170573
1163,000000	85,176070
1162,000000	85,180584
1161,000000	85,168834
1160,000000	85,161457
1159,000000	85,164094
1158,000000	85,160469
1157,000000	85,161911
1156,000000	85,165328
1155,000000	85,177202
1154,000000	85,179180
1153,000000	85,174360
1152,000000	85,165638
1151,000000	85,150562
1150,000000	85,141247
1149,000000	85,149744
1148,000000	85,149243
1147,000000	85,136862
1146,000000	85,131299
1145,000000	85,128248
1144,000000	85,124653
1143,000000	85,121679
1142,000000	85,122415
1141,000000	85,127256
1140,000000	85,125773
1139,000000	85,130032
1138,000000	85,126268
1137,000000	85,125279
1136,000000	85,120682
1135,000000	85,113016
1134,000000	85,110254
1133,000000	85,111119
1132,000000	85,105527
1131,000000	85,095586
1130,000000	85,094142
1129,000000	85,094387
1128,000000	85,090650
1127,000000	85,090131
1126,000000	85,094069
1125,000000	85,086583
1124,000000	85,082005
1123,000000	85,067068
1122,000000	85,059676
1121,000000	85,059650
1120,000000	85,066509
1119,000000	85,069871
1118,000000	85,068510
1117,000000	85,068894
1116,000000	85,068149
1115,000000	85,061687
1114,000000	85,055526
1113,000000	85,046418
1112,000000	85,046468
1111,000000	85,045561
1110,000000	85,053664
1109,000000	85,062385
1108,000000	85,066149
1107,000000	85,072662
1106,000000	85,076116
1105,000000	85,076332
1104,000000	85,076124
1103,000000	85,071557
1102,000000	85,063398
1101,000000	85,062828
1100,000000	85,063867
1099,000000	85,054892
1098,000000	85,054422
1097,000000	85,059414
1096,000000	85,059923
1095,000000	85,068450
1094,000000	85,067580
1093,000000	85,066072
1092,000000	85,060573
1091,000000	85,055821
1090,000000	85,054559
1089,000000	85,057381
1088,000000	85,057241
1087,000000	85,056783
1086,000000	85,055264
1085,000000	85,050324
1084,000000	85,045877
1083,000000	85,042359
1082,000000	85,039009
1081,000000	85,039238
1080,000000	85,047351
1079,000000	85,049141
1078,000000	85,048756
1077,000000	85,047886
1076,000000	85,051188
1075,000000	85,054067
1074,000000	85,049650
1073,000000	85,047350
1072,000000	85,048063
1071,000000	85,044230
1070,000000	85,036310
1069,000000	85,043223
1068,000000	85,054272
1067,000000	85,059737
1066,000000	85,065815
1065,000000	85,065689
1064,000000	85,058189
1063,000000	85,053618
1062,000000	85,049311
1061,000000	85,049180
1060,000000	85,049426
1059,000000	85,050050
1058,000000	85,056369
1057,000000	85,068219
1056,000000	85,068938
1055,000000	85,062406
1054,000000	85,063585
1053,000000	85,071919
1052,000000	85,075751
1051,000000	85,070936
1050,000000	85,059185
1049,000000	85,050655
1048,000000	85,055015
1047,000000	85,066201
1046,000000	85,071657
1045,000000	85,075888
1044,000000	85,079307
1043,000000	85,076333
1042,000000	85,072426
1041,000000	85,073569
1040,000000	85,070264
1039,000000	85,070476
1038,000000	85,083091
1037,000000	85,084975
1036,000000	85,087214
1035,000000	85,098461
1034,000000	85,104536
1033,000000	85,106132
1032,000000	85,107724
1031,000000	85,100846
1030,000000	85,090555
1029,000000	85,082181
1028,000000	85,083079
1027,000000	85,086619
1026,000000	85,086467
1025,000000	85,088476
1024,000000	85,093456
1023,000000	85,094116
1022,000000	85,091013
1021,000000	85,094348
1020,000000	85,102609
1019,000000	85,109402
1018,000000	85,118465
1017,000000	85,124907
1016,000000	85,120416
1015,000000	85,117337
1014,000000	85,117738
1013,000000	85,119944
1012,000000	85,120265
1011,000000	85,122609
1010,000000	85,121108
1009,000000	85,115203
1008,000000	85,116872
1007,000000	85,124637
1006,000000	85,130926
1005,000000	85,129991
1004,000000	85,133703
1003,000000	85,140382
1002,000000	85,145170
1001,000000	85,151388
1000,000000	85,149887
999,000000	85,150529
998,000000	85,157370
997,000000	85,165176
996,000000	85,169849
995,000000	85,177195
994,000000	85,180077
993,000000	85,179210
992,000000	85,180981
991,000000	85,182491
990,000000	85,187270
989,000000	85,196703
988,000000	85,211086
987,000000	85,226211
986,000000	85,235066
985,000000	85,236688
984,000000	85,232461
983,000000	85,230584
982,000000	85,230930
981,000000	85,237984
980,000000	85,240283
979,000000	85,242596
978,000000	85,244314
977,000000	85,245866
976,000000	85,254017
975,000000	85,259442
974,000000	85,270344
973,000000	85,274593
972,000000	85,277058
971,000000	85,279702
970,000000	85,281728
969,000000	85,286503
968,000000	85,290112
967,000000	85,292232
966,000000	85,299084
965,000000	85,309205
964,000000	85,317473
963,000000	85,323240
962,000000	85,335300
961,000000	85,336733
960,000000	85,342572
959,000000	85,359723
958,000000	85,379253
957,000000	85,392979
956,000000	85,393265
955,000000	85,392490
954,000000	85,386923
953,000000	85,374529
952,000000	85,371664
951,000000	85,382723
950,000000	85,387608
949,000000	85,390193
948,000000	85,398060
947,000000	85,398540
946,000000	85,396955
945,000000	85,408375
944,000000	85,420194
943,000000	85,437736
942,000000	85,446524
941,000000	85,442101
940,000000	85,441572
939,000000	85,454173
938,000000	85,463636
937,000000	85,476510
936,000000	85,476171
935,000000	85,467654
934,000000	85,477847
933,000000	85,494232
932,000000	85,501744
931,000000	85,507984
930,000000	85,513664
929,000000	85,513410
928,000000	85,520770
927,000000	85,529944
926,000000	85,536343
925,000000	85,546713
924,000000	85,557447
923,000000	85,555057
922,000000	85,559447
921,000000	85,575387
920,000000	85,592507
919,000000	85,603958
918,000000	85,616357
917,000000	85,621026
916,000000	85,623581
915,000000	85,623209
914,000000	85,632829
913,000000	85,647395
912,000000	85,661648
911,000000	85,679225
910,000000	85,685398
909,000000	85,686265
908,000000	85,693788
907,000000	85,710349
906,000000	85,719857
905,000000	85,711934
904,000000	85,729047
903,000000	85,736419
902,000000	85,734885
901,000000	85,749696
900,000000	85,748773
899,000000	85,755674
898,000000	85,777500
897,000000	85,792321
896,000000	85,808691
895,000000	85,811417
894,000000	85,805013
893,000000	85,808590
892,000000	85,822290
891,000000	85,837454
890,000000	85,850232
889,000000	85,871316
888,000000	85,885531
887,000000	85,888932
886,000000	85,900849
885,000000	85,910507
884,000000	85,919182
883,000000	85,928191
882,000000	85,937251
881,000000	85,947784
880,000000	85,963112
879,000000	85,968184
878,000000	85,978693
877,000000	85,988066
876,000000	85,994581
875,000000	86,014882
874,000000	86,030943
873,000000	86,046260
872,000000	86,049753
871,000000	86,046916
870,000000	86,072179
869,000000	86,102659
868,000000	86,124265
867,000000	86,136392
866,000000	86,141037
865,000000	86,142862
864,000000	86,169018
863,000000	86,163697
862,000000	86,168957
861,000000	86,182658
860,000000	86,401399
859,000000	86,350831
858,000000	86,395828
857,000000	86,378009
856,000000	86,387400
855,000000	86,493647
854,000000	86,408158
853,000000	86,534092
852,000000	86,508238
851,000000	86,501986
850,000000	86,554055
849,000000	86,503004
848,000000	86,534417
847,000000	86,563421
846,000000	86,571403
845,000000	86,597122
844,000000	86,609016
843,000000	86,606414
842,000000	86,593554
841,000000	86,647385
840,000000	86,676906
839,000000	86,678697
838,000000	86,667707
837,000000	86,684316
836,000000	86,750901
835,000000	86,733030
834,000000	86,728466
833,000000	86,757269
832,000000	86,769847
831,000000	86,796069
830,000000	86,817144
829,000000	86,796154
828,000000	86,819819
827,000000	86,853456
826,000000	86,861203
825,000000	86,815369
824,000000	86,858530
823,000000	86,883285
822,000000	86,895184
821,000000	86,920645
820,000000	86,924080
819,000000	86,943363
818,000000	86,959224
817,000000	86,935616
816,000000	86,960165
815,000000	86,999884
814,000000	86,988508
813,000000	87,016066
812,000000	87,066946
811,000000	87,048492
810,000000	87,061387
809,000000	87,087263
808,000000	87,103189
807,000000	87,143676
806,000000	87,153871
805,000000	87,174708
804,000000	87,191568
803,000000	87,183811
802,000000	87,206243
801,000000	87,224004
800,000000	87,252346
799,000000	87,266730
798,000000	87,300586
797,000000	87,304930
796,000000	87,332721
795,000000	87,363139
794,000000	87,379393
793,000000	87,400195
792,000000	87,429614
791,000000	87,425607
790,000000	87,465344
789,000000	87,504349
788,000000	87,504610
787,000000	87,519079
786,000000	87,525546
785,000000	87,554170
784,000000	87,581070
783,000000	87,585026
782,000000	87,617948
781,000000	87,628271
780,000000	87,666429
779,000000	87,671811
778,000000	87,703902
777,000000	87,733732
776,000000	87,733640
775,000000	87,763631
774,000000	87,792457
773,000000	87,786259
772,000000	87,812802
771,000000	87,825220
770,000000	87,839990
769,000000	87,866538
768,000000	87,895210
767,000000	87,925739
766,000000	87,964134
765,000000	87,970500
764,000000	87,985664
763,000000	87,994079
762,000000	88,023334
761,000000	88,055130
760,000000	88,071095
759,000000	88,089576
758,000000	88,114520
757,000000	88,141629
756,000000	88,166606
755,000000	88,178166
754,000000	88,201199
753,000000	88,206755
752,000000	88,213763
751,000000	88,240350
750,000000	88,282882
749,000000	88,300136
748,000000	88,325065
747,000000	88,342547
746,000000	88,374720
745,000000	88,404727
744,000000	88,426295
743,000000	88,447109
742,000000	88,440189
741,000000	88,453242
740,000000	88,473397
739,000000	88,504577
738,000000	88,539481
737,000000	88,553693
736,000000	88,578487
735,000000	88,595854
734,000000	88,607730
733,000000	88,648507
732,000000	88,683601
731,000000	88,707171
730,000000	88,723179
729,000000	88,727478
728,000000	88,733203
727,000000	88,752621
726,000000	88,783514
725,000000	88,813710
724,000000	88,828112
723,000000	88,839608
722,000000	88,879644
721,000000	88,907307
720,000000	88,914098
719,000000	88,931699
718,000000	88,965952
717,000000	88,977331
716,000000	88,980735
715,000000	89,000999
714,000000	89,032227
713,000000	89,054377
712,000000	89,078424
711,000000	89,098338
710,000000	89,105276
709,000000	89,129839
708,000000	89,154357
707,000000	89,165859
706,000000	89,179176
705,000000	89,196741
704,000000	89,232196
703,000000	89,267138
702,000000	89,289175
701,000000	89,312633
700,000000	89,320556
699,000000	89,331102
698,000000	89,365405
697,000000	89,388835
696,000000	89,397346
695,000000	89,409405
694,000000	89,428746
693,000000	89,440450
692,000000	89,451472
691,000000	89,465208
690,000000	89,504007
689,000000	89,535957
688,000000	89,541240
687,000000	89,547969
686,000000	89,566236
685,000000	89,589573
684,000000	89,615669
683,000000	89,631874
682,000000	89,644921
681,000000	89,669005
680,000000	89,697106
679,000000	89,703911
678,000000	89,726168
677,000000	89,736358
676,000000	89,757576
675,000000	89,777028
674,000000	89,804276
673,000000	89,828703
672,000000	89,830512
671,000000	89,858749
670,000000	89,869463
669,000000	89,890420
668,000000	89,923027
667,000000	89,943563
666,000000	89,945329
665,000000	89,944192
664,000000	89,961937
663,000000	89,986139
662,000000	89,991105
661,000000	89,997976
660,000000	90,028616
659,000000	90,039545
658,000000	90,065783
657,000000	90,086496
656,000000	90,083603
655,000000	90,098008
654,000000	90,116276
653,000000	90,136916
652,000000	90,147231
651,000000	90,164860
650,000000	90,198342
649,000000	90,204027
648,000000	90,211561
647,000000	90,229129
646,000000	90,236615
645,000000	90,259562
644,000000	90,279274
643,000000	90,273329
642,000000	90,293912
641,000000	90,319990
640,000000	90,325054
639,000000	90,343281
638,000000	90,342597
637,000000	90,356981
636,000000	90,385248
635,000000	90,391342
634,000000	90,424182
633,000000	90,433995
632,000000	90,457507
631,000000	90,473029
630,000000	90,485807
629,000000	90,520472
628,000000	90,545036
627,000000	90,554367
626,000000	90,581871
625,000000	90,579720
624,000000	90,585399
623,000000	90,589648
622,000000	90,614225
621,000000	90,636207
620,000000	90,654487
619,000000	90,661719
618,000000	90,683405
617,000000	90,697734
616,000000	90,704673
615,000000	90,707603
614,000000	90,729378
613,000000	90,740053
612,000000	90,744149
611,000000	90,764920
610,000000	90,771814
609,000000	90,774698
608,000000	90,791309
607,000000	90,787646
606,000000	90,815140
605,000000	90,830624
604,000000	90,848486
603,000000	90,860656
602,000000	90,881100
601,000000	90,897581
600,000000	90,919079
599,000000	90,907549
598,000000	90,925285
597,000000	90,953749
596,000000	90,956567
595,000000	90,970501
594,000000	90,978659
593,000000	90,990958
592,000000	91,007096
591,000000	91,002200
590,000000	91,008779
589,000000	91,038305
588,000000	91,040329
587,000000	91,056712
586,000000	91,050928
585,000000	91,060616
584,000000	91,095124
583,000000	91,110735
582,000000	91,115911
581,000000	91,125672
580,000000	91,132555
579,000000	91,143556
578,000000	91,176546
577,000000	91,158754
576,000000	91,130270
575,000000	91,162389
574,000000	91,141954
573,000000	91,154324
572,000000	91,167496
571,000000	91,158589
570,000000	91,182957
569,000000	91,196798
568,000000	91,212829
567,000000	91,230454
566,000000	91,235791
565,000000	91,232738
564,000000	91,239198
563,000000	91,240084
562,000000	91,234956
561,000000	91,236667
560,000000	91,245148
559,000000	91,248829
558,000000	91,276022
557,000000	91,297726
556,000000	91,279308
555,000000	91,303723
554,000000	91,317071
553,000000	91,325835
552,000000	91,326414
551,000000	91,335943
550,000000	91,330159
549,000000	91,341841
548,000000	91,320561
547,000000	91,338762
546,000000	91,342072
545,000000	91,341480
544,000000	91,341618
543,000000	91,361853
542,000000	91,362167
541,000000	91,368965
540,000000	91,363825
539,000000	91,356993
538,000000	91,364898
537,000000	91,379104
536,000000	91,379499
535,000000	91,380750
534,000000	91,376470
533,000000	91,387160
532,000000	91,385889
531,000000	91,386475
530,000000	91,382029
529,000000	91,387941
528,000000	91,393106
527,000000	91,407627
526,000000	91,428897
525,000000	91,450432
524,000000	91,443473
523,000000	91,434560
522,000000	91,432580
521,000000	91,431968
520,000000	91,441016
519,000000	91,439053
518,000000	91,437433
517,000000	91,458760
516,000000	91,447056
515,000000	91,426327
514,000000	91,438443
513,000000	91,438119
512,000000	91,420646
511,000000	91,405491
510,000000	91,393784
509,000000	91,377549
508,000000	91,377000
507,000000	91,361077
506,000000	91,350415
505,000000	91,352641
504,000000	91,347847
503,000000	91,352474
502,000000	91,347969
501,000000	91,343923
500,000000	91,330889
499,000000	91,325966
498,000000	91,335999
497,000000	91,320801
496,000000	91,320298
495,000000	91,341414
494,000000	91,327400
493,000000	91,334057
492,000000	91,337975
491,000000	91,317609
490,000000	91,321719
489,000000	91,324542
488,000000	91,314194
487,000000	91,309235
486,000000	91,298921
485,000000	91,299401
484,000000	91,298610
483,000000	91,303646
482,000000	91,303782
481,000000	91,304879
480,000000	91,306558
479,000000	91,303876
478,000000	91,297559
477,000000	91,299408
476,000000	91,298574
475,000000	91,299096
474,000000	91,284467
473,000000	91,281835
472,000000	91,262437
471,000000	91,263105
470,000000	91,265076
469,000000	91,257704
468,000000	91,246008
467,000000	91,248008
466,000000	91,237384
465,000000	91,223937
464,000000	91,198299
463,000000	91,189077
462,000000	91,183412
461,000000	91,173766
460,000000	91,160110
459,000000	91,139676
458,000000	91,119547
457,000000	91,102378
456,000000	91,083247
455,000000	91,046014
454,000000	91,017009
453,000000	91,005811
452,000000	90,991485
451,000000	90,966067
450,000000	90,946384
449,000000	90,931255
448,000000	90,916228
447,000000	90,900346
446,000000	90,881557
445,000000	90,863846
444,000000	90,848946
443,000000	90,841913
442,000000	90,831117
441,000000	90,820566
440,000000	90,807435
439,000000	90,795302
438,000000	90,788667
437,000000	90,800329
436,000000	90,803143
435,000000	90,797432
434,000000	90,799492
433,000000	90,803601
432,000000	90,815453
431,000000	90,813797
430,000000	90,807049
429,000000	90,821534
428,000000	90,821203
427,000000	90,814787
426,000000	90,803826
425,000000	90,798412
424,000000	90,788421
423,000000	90,793045
422,000000	90,786505
421,000000	90,771184
420,000000	90,777767
419,000000	90,783368
418,000000	90,784291
417,000000	90,790530
416,000000	90,805079
415,000000	90,835810
414,000000	90,865725
413,000000	90,873424
412,000000	90,868600
411,000000	90,865276
410,000000	90,857870
409,000000	90,843385
408,000000	90,844192
407,000000	90,879986
406,000000	90,892948
405,000000	90,866711
404,000000	90,852530
403,000000	90,839442
402,000000	90,836302
401,000000	90,830050
400,000000	90,801446
399,000000	90,763605
398,000000	90,727060
397,000000	90,711863
396,000000	90,678308
395,000000	90,606632
394,000000	90,525215
393,000000	90,433256
392,000000	90,334810
391,000000	90,240119
390,000000	90,145168
389,000000	90,003814
388,000000	89,850827
387,000000	89,702324
386,000000	89,553796
385,000000	89,399505
384,000000	89,251524
383,000000	89,094797
382,000000	88,972754
381,000000	88,899056
380,000000	88,860953
379,000000	88,701779
378,000000	88,715281
377,000000	88,806839
376,000000	88,965668
375,000000	89,109184
374,000000	89,258872
373,000000	89,372382
372,000000	89,467306
371,000000	89,469790
370,000000	89,419111
369,000000	89,425920
368,000000	89,359932
367,000000	89,282744
366,000000	89,199948
365,000000	89,084778
364,000000	88,902787
363,000000	88,784778
362,000000	88,616333
361,000000	88,424019
360,000000	88,227971
359,000000	87,982894
358,000000	87,707114
357,000000	87,396594
356,000000	87,071284
355,000000	86,778997
354,000000	86,400652
353,000000	85,975594
352,000000	85,513128
351,000000	85,013056
350,000000	84,499160
349,000000	83,930249
348,000000	83,281025
347,000000	82,465907
346,000000	81,766010
345,000000	80,954471
344,000000	80,038901
343,000000	79,120758
342,000000	78,049288
341,000000	76,867079
340,000000	75,660044
339,000000	74,345408
338,000000	72,922697
337,000000	71,404805
336,000000	69,795162
335,000000	68,080937
334,000000	66,212029
333,000000	64,266159
332,000000	62,181520
331,000000	60,022128
330,000000	57,797586
329,000000	55,433382
328,000000	52,941647
327,000000	50,296442
326,000000	47,664703
325,000000	44,913996
324,000000	42,246764
323,000000	39,401733
322,000000	36,534153
321,000000	33,709644
320,000000	30,915410
319,000000	28,023811
318,000000	25,242537
317,000000	22,572006
316,000000	20,009776
315,000000	17,576986
314,000000	15,288679
313,000000	13,152677
312,000000	11,197243
311,000000	9,412649
310,000000	7,819635
309,000000	6,410250
308,000000	5,174577
307,000000	4,107459
306,000000	3,212225
305,000000	2,470780
304,000000	1,864351
303,000000	1,383890
302,000000	1,011367
301,000000	0,721459
300,000000	0,503075
299,000000	0,343751
298,000000	0,225477
297,000000	0,142554
296,000000	0,088082
295,000000	0,051086
294,000000	0,026740
293,000000	0,012196
292,000000	0,004463
291,000000	-0,002495
290,000000	-0,003549
289,000000	-0,003550
288,000000	-0,005789
287,000000	-0,008690
286,000000	-0,008693
285,000000	-0,006457
284,000000	-0,006459
283,000000	-0,009890
282,000000	-0,009100
281,000000	-0,007781
280,000000	-0,008443
279,000000	-0,008180
278,000000	-0,006994
277,000000	-0,007786
276,000000	-0,010295
275,000000	-0,007789
274,000000	-0,006733
273,000000	-0,007524
272,000000	-0,005941
271,000000	-0,007132
270,000000	-0,006075
269,000000	-0,007265
268,000000	-0,004888
267,000000	-0,006211
266,000000	-0,007139
265,000000	-0,005025
264,000000	-0,002910
263,000000	-0,004366
262,000000	-0,005822
261,000000	-0,005957
260,000000	-0,004503
259,000000	-0,005166
258,000000	-0,001590
257,000000	-0,003579
256,000000	-0,002917
255,000000	-0,003183
254,000000	-0,000663
253,000000	-0,003186
252,000000	-0,006243
251,000000	-0,003189
250,000000	-0,005718
249,000000	-0,005590
248,000000	-0,007192
247,000000	-0,007864
246,000000	-0,005068
245,000000	-0,006275
244,000000	-0,005614
243,000000	-0,002409
242,000000	-0,002815
241,000000	-0,003490
240,000000	-0,001614
239,000000	-0,002560
238,000000	-0,000675
237,000000	-0,000135
236,000000	-0,000406
235,000000	0,001627
234,000000	0,001629
233,000000	0,000136
232,000000	0,000408
231,000000	0,000680
230,000000	0,000543
229,000000	0,001765
228,000000	0,000949
227,000000	0,002437
226,000000	0,001081
225,000000	0,002428
224,000000	0,004575
223,000000	0,006310
222,000000	0,005222
221,000000	0,003605
220,000000	0,003995
219,000000	0,003187
218,000000	0,004237
217,000000	0,005151
216,000000	0,005007
215,000000	0,006967
214,000000	0,009575
213,000000	0,009817
212,000000	0,010581
211,000000	0,009520
210,000000	0,010546
209,000000	0,010532
208,000000	0,012597
207,000000	0,012584
206,000000	0,012313
205,000000	0,014891
204,000000	0,014747
203,000000	0,015254
202,000000	0,017183
201,000000	0,020404
200,000000	0,021552
