PE UV       SUBTECH     SPECTRUM    ASCII       PEDS        4.00        
   -1
sampleAV.Sample.asc
22/01/27
16:07:20.00
22/01/27
16:07:20.00
Administrator

200,000000
1
Lambda 1050
1050L1808311
PerkinElmer UV WinLab 6.4.0.973 / 2.02.11 Lambda 900 UV/VIS/NIR, May 23 2018 11:23:04

0
0
3350/servo 1800,8/servo 860,8/2
0
0
UV/VIS
1
1
1
CommonBeamDepol,RBeamAtt,SBeamAtt,uv/vis/nir detector, TDS WB InGaAs Detector
0
0
0
0
Program
Program
3350/servo 1800,8/servo 860,8/2
3350/0,2 1800,8/0,2 860,8/0,2
3350/0,2 1800,8/0,2 860,8/0,2
0
3350/1,00 1800,8/1,00
 
 
 
0
 
860,8
319,2
1800,8 860,8
Front
100
on
S:100 R:100
 
0
0
0
 
0
 
 
 
0
 
 
0
0
0
0
0
 
 
 
 
0
0


0
0
#HDR
-1
-1
#GR
nm
%T
1.0
0.0
2000,000000
-1,000000
1801
8
51,984166
0,118686
#DATA
2000,000000	51,984166
1999,000000	51,981448
1998,000000	51,953442
1997,000000	51,962052
1996,000000	51,936984
1995,000000	51,939666
1994,000000	51,902539
1993,000000	51,935492
1992,000000	51,909469
1991,000000	51,893698
1990,000000	51,871628
1989,000000	51,850254
1988,000000	51,819192
1987,000000	51,813716
1986,000000	51,783201
1985,000000	51,793464
1984,000000	51,762102
1983,000000	51,752058
1982,000000	51,741960
1981,000000	51,736781
1980,000000	51,695813
1979,000000	51,698806
1978,000000	51,674612
1977,000000	51,676077
1976,000000	51,641718
1975,000000	51,640136
1974,000000	51,587440
1973,000000	51,599758
1972,000000	51,572063
1971,000000	51,568711
1970,000000	51,514793
1969,000000	51,503108
1968,000000	51,480493
1967,000000	51,475952
1966,000000	51,443383
1965,000000	51,431472
1964,000000	51,415312
1963,000000	51,385061
1962,000000	51,353941
1961,000000	51,351525
1960,000000	51,315038
1959,000000	51,289842
1958,000000	51,259894
1957,000000	51,240876
1956,000000	51,215115
1955,000000	51,183017
1954,000000	51,140466
1953,000000	51,124216
1952,000000	51,070251
1951,000000	51,061734
1950,000000	51,026966
1949,000000	51,009482
1948,000000	50,940975
1947,000000	50,928682
1946,000000	50,856058
1945,000000	50,829323
1944,000000	50,804106
1943,000000	50,765321
1942,000000	50,711695
1941,000000	50,694791
1940,000000	50,640235
1939,000000	50,600940
1938,000000	50,586248
1937,000000	50,564919
1936,000000	50,502362
1935,000000	50,485905
1934,000000	50,441196
1933,000000	50,380381
1932,000000	50,315335
1931,000000	50,297222
1930,000000	50,225831
1929,000000	50,173346
1928,000000	50,134945
1927,000000	50,112788
1926,000000	50,052225
1925,000000	50,037479
1924,000000	50,001405
1923,000000	49,930588
1922,000000	49,860218
1921,000000	49,831923
1920,000000	49,772687
1919,000000	49,771292
1918,000000	49,786523
1917,000000	49,749198
1916,000000	49,671674
1915,000000	49,625518
1914,000000	49,563825
1913,000000	49,525339
1912,000000	49,504912
1911,000000	49,442562
1910,000000	49,376037
1909,000000	49,347057
1908,000000	49,309001
1907,000000	49,245262
1906,000000	49,188349
1905,000000	49,113720
1904,000000	49,055317
1903,000000	49,028184
1902,000000	49,004927
1901,000000	48,948847
1900,000000	48,871545
1899,000000	48,813728
1898,000000	48,761972
1897,000000	48,763935
1896,000000	48,738822
1895,000000	48,684921
1894,000000	48,613758
1893,000000	48,577279
1892,000000	48,527201
1891,000000	48,469111
1890,000000	48,443250
1889,000000	48,402438
1888,000000	48,327909
1887,000000	48,287951
1886,000000	48,242925
1885,000000	48,180491
1884,000000	48,138141
1883,000000	48,103527
1882,000000	48,072163
1881,000000	48,054108
1880,000000	48,005579
1879,000000	47,954154
1878,000000	47,912830
1877,000000	47,863908
1876,000000	47,798004
1875,000000	47,783339
1874,000000	47,768752
1873,000000	47,749246
1872,000000	47,765830
1871,000000	47,763457
1870,000000	47,715199
1869,000000	47,686828
1868,000000	47,647577
1867,000000	47,598220
1866,000000	47,566844
1865,000000	47,515030
1864,000000	47,437558
1863,000000	47,392994
1862,000000	47,363442
1861,000000	47,324364
1860,000000	47,316126
1859,000000	47,305626
1858,000000	47,275331
1857,000000	47,261770
1856,000000	47,232118
1855,000000	47,197954
1854,000000	47,203427
1853,000000	47,209176
1852,000000	47,191416
1851,000000	47,159019
1850,000000	47,102928
1849,000000	47,048169
1848,000000	47,066048
1847,000000	47,134695
1846,000000	47,201067
1845,000000	47,207080
1844,000000	47,099072
1843,000000	46,962931
1842,000000	46,906879
1841,000000	46,913449
1840,000000	46,986886
1839,000000	47,063330
1838,000000	47,057871
1837,000000	47,033499
1836,000000	47,029659
1835,000000	47,036854
1834,000000	47,063256
1833,000000	47,055099
1832,000000	46,994272
1831,000000	46,954254
1830,000000	47,009809
1829,000000	47,059576
1828,000000	47,093801
1827,000000	47,117699
1826,000000	47,134280
1825,000000	47,136480
1824,000000	47,082851
1823,000000	46,988432
1822,000000	46,963093
1821,000000	47,015402
1820,000000	47,111489
1819,000000	47,195175
1818,000000	47,199190
1817,000000	47,133226
1816,000000	47,095277
1815,000000	47,096821
1814,000000	47,119352
1813,000000	47,125254
1812,000000	47,141369
1811,000000	47,157856
1810,000000	47,192021
1809,000000	47,215326
1808,000000	47,204813
1807,000000	47,204550
1806,000000	47,253405
1805,000000	47,287983
1804,000000	47,314943
1803,000000	47,302949
1802,000000	47,296174
1801,000000	47,298606
1800,000000	46,152279
1799,000000	46,135846
1798,000000	46,124770
1797,000000	46,117660
1796,000000	46,116682
1795,000000	46,113752
1794,000000	46,103918
1793,000000	46,094519
1792,000000	46,080727
1791,000000	46,067775
1790,000000	46,058655
1789,000000	46,049088
1788,000000	46,035381
1787,000000	46,028196
1786,000000	46,023192
1785,000000	46,015258
1784,000000	45,996121
1783,000000	45,974816
1782,000000	45,961597
1781,000000	45,949174
1780,000000	45,939201
1779,000000	45,927987
1778,000000	45,920838
1777,000000	45,912945
1776,000000	45,906346
1775,000000	45,905909
1774,000000	45,902928
1773,000000	45,890525
1772,000000	45,881885
1771,000000	45,874271
1770,000000	45,867070
1769,000000	45,861575
1768,000000	45,856983
1767,000000	45,846722
1766,000000	45,837330
1765,000000	45,828261
1764,000000	45,824848
1763,000000	45,821197
1762,000000	45,819480
1761,000000	45,813611
1760,000000	45,804723
1759,000000	45,799067
1758,000000	45,793928
1757,000000	45,789130
1756,000000	45,781468
1755,000000	45,774515
1754,000000	45,766955
1753,000000	45,755991
1752,000000	45,739911
1751,000000	45,728478
1750,000000	45,728018
1749,000000	45,728479
1748,000000	45,718259
1747,000000	45,702732
1746,000000	45,690294
1745,000000	45,685055
1744,000000	45,677845
1743,000000	45,666324
1742,000000	45,657728
1741,000000	45,651095
1740,000000	45,644305
1739,000000	45,643445
1738,000000	45,639030
1737,000000	45,628112
1736,000000	45,617535
1735,000000	45,604374
1734,000000	45,588209
1733,000000	45,572850
1732,000000	45,561220
1731,000000	45,552929
1730,000000	45,543091
1729,000000	45,534847
1728,000000	45,527486
1727,000000	45,519182
1726,000000	45,515471
1725,000000	45,505603
1724,000000	45,497484
1723,000000	45,482968
1722,000000	45,471852
1721,000000	45,459334
1720,000000	45,445300
1719,000000	45,430570
1718,000000	45,414563
1717,000000	45,403682
1716,000000	45,395826
1715,000000	45,381888
1714,000000	45,367692
1713,000000	45,353354
1712,000000	45,333980
1711,000000	45,318751
1710,000000	45,305576
1709,000000	45,291197
1708,000000	45,274385
1707,000000	45,254381
1706,000000	45,236097
1705,000000	45,221236
1704,000000	45,206101
1703,000000	45,187532
1702,000000	45,168877
1701,000000	45,150255
1700,000000	45,133972
1699,000000	45,114641
1698,000000	45,096685
1697,000000	45,081876
1696,000000	45,063245
1695,000000	45,040863
1694,000000	45,015367
1693,000000	44,994270
1692,000000	44,973546
1691,000000	44,952210
1690,000000	44,932537
1689,000000	44,912432
1688,000000	44,893141
1687,000000	44,875737
1686,000000	44,858525
1685,000000	44,837714
1684,000000	44,812472
1683,000000	44,786897
1682,000000	44,765375
1681,000000	44,743211
1680,000000	44,717044
1679,000000	44,691718
1678,000000	44,668871
1677,000000	44,647139
1676,000000	44,623277
1675,000000	44,600010
1674,000000	44,577609
1673,000000	44,553608
1672,000000	44,530294
1671,000000	44,507795
1670,000000	44,485464
1669,000000	44,463300
1668,000000	44,438863
1667,000000	44,412654
1666,000000	44,387517
1665,000000	44,366956
1664,000000	44,346281
1663,000000	44,321495
1662,000000	44,295670
1661,000000	44,273480
1660,000000	44,246586
1659,000000	44,214835
1658,000000	44,188785
1657,000000	44,162676
1656,000000	44,133218
1655,000000	44,101832
1654,000000	44,069381
1653,000000	44,036066
1652,000000	44,007351
1651,000000	43,975931
1650,000000	43,941752
1649,000000	43,909429
1648,000000	43,877775
1647,000000	43,847186
1646,000000	43,815417
1645,000000	43,784446
1644,000000	43,752993
1643,000000	43,718294
1642,000000	43,684727
1641,000000	43,649178
1640,000000	43,613330
1639,000000	43,582347
1638,000000	43,557393
1637,000000	43,529923
1636,000000	43,499672
1635,000000	43,468030
1634,000000	43,435805
1633,000000	43,400512
1632,000000	43,364251
1631,000000	43,331006
1630,000000	43,302974
1629,000000	43,275154
1628,000000	43,245642
1627,000000	43,212670
1626,000000	43,176066
1625,000000	43,137929
1624,000000	43,097757
1623,000000	43,061682
1622,000000	43,029572
1621,000000	42,997884
1620,000000	42,970232
1619,000000	42,937517
1618,000000	42,897875
1617,000000	42,857846
1616,000000	42,824436
1615,000000	42,794279
1614,000000	42,759711
1613,000000	42,723058
1612,000000	42,690753
1611,000000	42,659616
1610,000000	42,627743
1609,000000	42,594732
1608,000000	42,562775
1607,000000	42,529236
1606,000000	42,495246
1605,000000	42,464530
1604,000000	42,430396
1603,000000	42,394710
1602,000000	42,360315
1601,000000	42,325359
1600,000000	42,294969
1599,000000	42,266274
1598,000000	42,235986
1597,000000	42,199079
1596,000000	42,159994
1595,000000	42,120720
1594,000000	42,091541
1593,000000	42,060832
1592,000000	42,025841
1591,000000	41,990586
1590,000000	41,954971
1589,000000	41,919834
1588,000000	41,886508
1587,000000	41,852330
1586,000000	41,816513
1585,000000	41,781610
1584,000000	41,751304
1583,000000	41,723621
1582,000000	41,691210
1581,000000	41,654172
1580,000000	41,617361
1579,000000	41,586130
1578,000000	41,556846
1577,000000	41,525745
1576,000000	41,489138
1575,000000	41,454072
1574,000000	41,420074
1573,000000	41,383846
1572,000000	41,351127
1571,000000	41,319705
1570,000000	41,289630
1569,000000	41,256550
1568,000000	41,219109
1567,000000	41,180647
1566,000000	41,143740
1565,000000	41,111098
1564,000000	41,077910
1563,000000	41,045776
1562,000000	41,014827
1561,000000	40,982269
1560,000000	40,949400
1559,000000	40,920900
1558,000000	40,890744
1557,000000	40,856188
1556,000000	40,818278
1555,000000	40,781347
1554,000000	40,747103
1553,000000	40,715451
1552,000000	40,681496
1551,000000	40,650314
1550,000000	40,620915
1549,000000	40,590525
1548,000000	40,561988
1547,000000	40,529971
1546,000000	40,500180
1545,000000	40,471062
1544,000000	40,438762
1543,000000	40,404729
1542,000000	40,372876
1541,000000	40,346048
1540,000000	40,317630
1539,000000	40,286429
1538,000000	40,251263
1537,000000	40,224706
1536,000000	40,196166
1535,000000	40,165894
1534,000000	40,140001
1533,000000	40,110000
1532,000000	40,081387
1531,000000	40,051702
1530,000000	40,021815
1529,000000	39,998923
1528,000000	39,978120
1527,000000	39,947337
1526,000000	39,914453
1525,000000	39,896347
1524,000000	39,873486
1523,000000	39,843746
1522,000000	39,822573
1521,000000	39,801637
1520,000000	39,780722
1519,000000	39,757879
1518,000000	39,734576
1517,000000	39,711832
1516,000000	39,694229
1515,000000	39,674221
1514,000000	39,651713
1513,000000	39,634372
1512,000000	39,615202
1511,000000	39,598197
1510,000000	39,577957
1509,000000	39,556182
1508,000000	39,536668
1507,000000	39,519653
1506,000000	39,503524
1505,000000	39,489730
1504,000000	39,476822
1503,000000	39,462629
1502,000000	39,449706
1501,000000	39,435067
1500,000000	39,417158
1499,000000	39,404889
1498,000000	39,392482
1497,000000	39,383450
1496,000000	39,372764
1495,000000	39,355113
1494,000000	39,345769
1493,000000	39,324050
1492,000000	39,309839
1491,000000	39,298520
1490,000000	39,292960
1489,000000	39,281986
1488,000000	39,274306
1487,000000	39,268638
1486,000000	39,260386
1485,000000	39,251525
1484,000000	39,244630
1483,000000	39,233400
1482,000000	39,224012
1481,000000	39,214849
1480,000000	39,204225
1479,000000	39,196481
1478,000000	39,183886
1477,000000	39,168918
1476,000000	39,157919
1475,000000	39,147939
1474,000000	39,135919
1473,000000	39,122713
1472,000000	39,110381
1471,000000	39,098449
1470,000000	39,092823
1469,000000	39,088221
1468,000000	39,084535
1467,000000	39,079627
1466,000000	39,073329
1465,000000	39,066603
1464,000000	39,053633
1463,000000	39,036357
1462,000000	39,027438
1461,000000	39,019749
1460,000000	39,018348
1459,000000	39,012059
1458,000000	39,005859
1457,000000	39,004295
1456,000000	39,003047
1455,000000	38,999044
1454,000000	39,014013
1453,000000	39,040608
1452,000000	39,019984
1451,000000	38,986529
1450,000000	38,948792
1449,000000	38,936563
1448,000000	38,929723
1447,000000	38,916089
1446,000000	38,895984
1445,000000	38,881448
1444,000000	38,874197
1443,000000	38,858898
1442,000000	38,845948
1441,000000	38,832595
1440,000000	38,818847
1439,000000	38,806118
1438,000000	38,796024
1437,000000	38,779122
1436,000000	38,760712
1435,000000	38,745729
1434,000000	38,729004
1433,000000	38,711508
1432,000000	38,696304
1431,000000	38,681837
1430,000000	38,666998
1429,000000	38,652066
1428,000000	38,638738
1427,000000	38,620606
1426,000000	38,602085
1425,000000	38,582835
1424,000000	38,561958
1423,000000	38,540206
1422,000000	38,507022
1421,000000	38,495176
1420,000000	38,494971
1419,000000	38,476012
1418,000000	38,456995
1417,000000	38,438647
1416,000000	38,416279
1415,000000	38,394356
1414,000000	38,375697
1413,000000	38,357750
1412,000000	38,340355
1411,000000	38,320094
1410,000000	38,301926
1409,000000	38,284887
1408,000000	38,264715
1407,000000	38,241940
1406,000000	38,220628
1405,000000	38,199468
1404,000000	38,176052
1403,000000	38,153638
1402,000000	38,134250
1401,000000	38,114621
1400,000000	38,100890
1399,000000	38,088472
1398,000000	38,072594
1397,000000	38,053953
1396,000000	38,035841
1395,000000	38,016096
1394,000000	37,993002
1393,000000	37,969391
1392,000000	37,947681
1391,000000	37,928057
1390,000000	37,907406
1389,000000	37,883305
1388,000000	37,862205
1387,000000	37,844469
1386,000000	37,822943
1385,000000	37,800809
1384,000000	37,777895
1383,000000	37,756670
1382,000000	37,735165
1381,000000	37,710723
1380,000000	37,685549
1379,000000	37,664477
1378,000000	37,644763
1377,000000	37,625534
1376,000000	37,605735
1375,000000	37,588231
1374,000000	37,569412
1373,000000	37,549348
1372,000000	37,527151
1371,000000	37,498976
1370,000000	37,469329
1369,000000	37,440929
1368,000000	37,409797
1367,000000	37,375361
1366,000000	37,340448
1365,000000	37,305422
1364,000000	37,268946
1363,000000	37,230165
1362,000000	37,192619
1361,000000	37,159669
1360,000000	37,128557
1359,000000	37,093570
1358,000000	37,058653
1357,000000	37,026525
1356,000000	36,997836
1355,000000	36,969612
1354,000000	36,942251
1353,000000	36,915387
1352,000000	36,885016
1351,000000	36,854383
1350,000000	36,822630
1349,000000	36,795456
1348,000000	36,780177
1347,000000	36,774172
1346,000000	36,740779
1345,000000	36,726492
1344,000000	36,763200
1343,000000	36,768795
1342,000000	36,707495
1341,000000	36,647509
1340,000000	36,650682
1339,000000	36,616913
1338,000000	36,559088
1337,000000	36,566917
1336,000000	36,566463
1335,000000	36,505103
1334,000000	36,451205
1333,000000	36,422159
1332,000000	36,392683
1331,000000	36,360505
1330,000000	36,326280
1329,000000	36,294708
1328,000000	36,265706
1327,000000	36,236403
1326,000000	36,206682
1325,000000	36,176216
1324,000000	36,144290
1323,000000	36,132204
1322,000000	36,116734
1321,000000	36,090608
1320,000000	36,031351
1319,000000	36,019677
1318,000000	36,018607
1317,000000	35,993141
1316,000000	35,970204
1315,000000	35,911726
1314,000000	35,901571
1313,000000	35,901876
1312,000000	35,882242
1311,000000	35,863196
1310,000000	35,840716
1309,000000	35,780703
1308,000000	35,738617
1307,000000	35,722024
1306,000000	35,704796
1305,000000	35,684490
1304,000000	35,666685
1303,000000	35,652381
1302,000000	35,640331
1301,000000	35,630017
1300,000000	35,620266
1299,000000	35,609962
1298,000000	35,597701
1297,000000	35,585255
1296,000000	35,574955
1295,000000	35,567122
1294,000000	35,597881
1293,000000	35,609179
1292,000000	35,602342
1291,000000	35,595109
1290,000000	35,587141
1289,000000	35,553581
1288,000000	35,537485
1287,000000	35,576816
1286,000000	35,588255
1285,000000	35,584437
1284,000000	35,583075
1283,000000	35,579704
1282,000000	35,576525
1281,000000	35,572832
1280,000000	35,567597
1279,000000	35,562997
1278,000000	35,559907
1277,000000	35,555735
1276,000000	35,553022
1275,000000	35,550571
1274,000000	35,544597
1273,000000	35,540361
1272,000000	35,541095
1271,000000	35,496888
1270,000000	35,481153
1269,000000	35,481018
1268,000000	35,480271
1267,000000	35,508072
1266,000000	35,517766
1265,000000	35,510296
1264,000000	35,461934
1263,000000	35,447815
1262,000000	35,489860
1261,000000	35,497680
1260,000000	35,496514
1259,000000	35,495034
1258,000000	35,492988
1257,000000	35,493091
1256,000000	35,496726
1255,000000	35,498073
1254,000000	35,498775
1253,000000	35,497862
1252,000000	35,496841
1251,000000	35,497079
1250,000000	35,499692
1249,000000	35,500672
1248,000000	35,499898
1247,000000	35,504697
1246,000000	35,506803
1245,000000	35,508974
1244,000000	35,513189
1243,000000	35,518654
1242,000000	35,519782
1241,000000	35,521586
1240,000000	35,525710
1239,000000	35,529869
1238,000000	35,484131
1237,000000	35,482334
1236,000000	35,530807
1235,000000	35,542595
1234,000000	35,548136
1233,000000	35,506949
1232,000000	35,548268
1231,000000	35,559642
1230,000000	35,566687
1229,000000	35,527262
1228,000000	35,569164
1227,000000	35,576077
1226,000000	35,580773
1225,000000	35,539039
1224,000000	35,585285
1223,000000	35,593270
1222,000000	35,593858
1221,000000	35,598483
1220,000000	35,607967
1219,000000	35,576416
1218,000000	35,580404
1217,000000	35,581919
1216,000000	35,623623
1215,000000	35,625995
1214,000000	35,630748
1213,000000	35,632253
1212,000000	35,632807
1211,000000	35,637240
1210,000000	35,638056
1209,000000	35,637351
1208,000000	35,635763
1207,000000	35,633296
1206,000000	35,626497
1205,000000	35,619705
1204,000000	35,596272
1203,000000	35,602438
1202,000000	35,601567
1201,000000	35,587805
1200,000000	35,622566
1199,000000	35,620061
1198,000000	35,614489
1197,000000	35,609736
1196,000000	35,598540
1195,000000	35,591232
1194,000000	35,590288
1193,000000	35,579254
1192,000000	35,569070
1191,000000	35,515338
1190,000000	35,472590
1189,000000	35,466829
1188,000000	35,452966
1187,000000	35,438102
1186,000000	35,425011
1185,000000	35,410330
1184,000000	35,402735
1183,000000	35,391199
1182,000000	35,378255
1181,000000	35,368473
1180,000000	35,358160
1179,000000	35,349552
1178,000000	35,336107
1177,000000	35,319654
1176,000000	35,303560
1175,000000	35,290157
1174,000000	35,273950
1173,000000	35,265892
1172,000000	35,256298
1171,000000	35,245258
1170,000000	35,234251
1169,000000	35,225842
1168,000000	35,217523
1167,000000	35,203996
1166,000000	35,196792
1165,000000	35,183352
1164,000000	35,172710
1163,000000	35,165960
1162,000000	35,162614
1161,000000	35,156872
1160,000000	35,146490
1159,000000	35,138146
1158,000000	35,130072
1157,000000	35,122556
1156,000000	35,113551
1155,000000	35,105313
1154,000000	35,091578
1153,000000	35,080694
1152,000000	35,074458
1151,000000	35,069500
1150,000000	35,062096
1149,000000	35,061516
1148,000000	35,063152
1147,000000	35,057361
1146,000000	35,048511
1145,000000	35,042811
1144,000000	35,037315
1143,000000	35,034052
1142,000000	35,031085
1141,000000	35,028691
1140,000000	35,023904
1139,000000	35,026300
1138,000000	35,022648
1137,000000	35,021477
1136,000000	35,021154
1135,000000	35,015749
1134,000000	35,018828
1133,000000	35,022069
1132,000000	35,021748
1131,000000	35,020832
1130,000000	35,021014
1129,000000	35,022137
1128,000000	35,027999
1127,000000	35,033153
1126,000000	35,040683
1125,000000	35,043715
1124,000000	35,052068
1123,000000	35,057380
1122,000000	35,063250
1121,000000	35,074120
1120,000000	35,083917
1119,000000	35,094656
1118,000000	35,105630
1117,000000	35,117713
1116,000000	35,132356
1115,000000	35,146700
1114,000000	35,155467
1113,000000	35,168672
1112,000000	35,187833
1111,000000	35,203734
1110,000000	35,223240
1109,000000	35,245566
1108,000000	35,267448
1107,000000	35,289316
1106,000000	35,311821
1105,000000	35,335778
1104,000000	35,360526
1103,000000	35,382802
1102,000000	35,403502
1101,000000	35,426086
1100,000000	35,448479
1099,000000	35,471816
1098,000000	35,499230
1097,000000	35,527778
1096,000000	35,557413
1095,000000	35,586569
1094,000000	35,615265
1093,000000	35,642842
1092,000000	35,668735
1091,000000	35,697280
1090,000000	35,724800
1089,000000	35,753294
1088,000000	35,780780
1087,000000	35,809494
1086,000000	35,837515
1085,000000	35,864541
1084,000000	35,891445
1083,000000	35,917457
1082,000000	35,943434
1081,000000	35,972400
1080,000000	36,004660
1079,000000	36,035425
1078,000000	36,061554
1077,000000	36,085907
1076,000000	36,111342
1075,000000	36,138940
1074,000000	36,161760
1073,000000	36,185555
1072,000000	36,209881
1071,000000	36,232215
1070,000000	36,254580
1069,000000	36,282740
1068,000000	36,312078
1067,000000	36,337809
1066,000000	36,361956
1065,000000	36,386337
1064,000000	36,407396
1063,000000	36,425534
1062,000000	36,444211
1061,000000	36,467071
1060,000000	36,490293
1059,000000	36,513072
1058,000000	36,538464
1057,000000	36,562056
1056,000000	36,580045
1055,000000	36,594800
1054,000000	36,614140
1053,000000	36,637987
1052,000000	36,660234
1051,000000	36,676339
1050,000000	36,688090
1049,000000	36,702386
1048,000000	36,721540
1047,000000	36,742288
1046,000000	36,760133
1045,000000	36,776876
1044,000000	36,795924
1043,000000	36,814902
1042,000000	36,827968
1041,000000	36,838115
1040,000000	36,851230
1039,000000	36,869109
1038,000000	36,887252
1037,000000	36,899881
1036,000000	36,910797
1035,000000	36,923121
1034,000000	36,935618
1033,000000	36,947404
1032,000000	36,960573
1031,000000	36,972561
1030,000000	36,980724
1029,000000	36,987834
1028,000000	36,996337
1027,000000	37,004491
1026,000000	37,013317
1025,000000	37,024354
1024,000000	37,035594
1023,000000	37,044929
1022,000000	37,054645
1021,000000	37,064911
1020,000000	37,075353
1019,000000	37,088304
1018,000000	37,103217
1017,000000	37,116195
1016,000000	37,126958
1015,000000	37,137490
1014,000000	37,150366
1013,000000	37,164280
1012,000000	37,179093
1011,000000	37,196601
1010,000000	37,215509
1009,000000	37,232818
1008,000000	37,250859
1007,000000	37,271078
1006,000000	37,293313
1005,000000	37,314861
1004,000000	37,339439
1003,000000	37,365049
1002,000000	37,390483
1001,000000	37,418969
1000,000000	37,443335
999,000000	37,471146
998,000000	37,504081
997,000000	37,536182
996,000000	37,565871
995,000000	37,599489
994,000000	37,632963
993,000000	37,668181
992,000000	37,704639
991,000000	37,740979
990,000000	37,779608
989,000000	37,821726
988,000000	37,861950
987,000000	37,902873
986,000000	37,945830
985,000000	37,986879
984,000000	38,025369
983,000000	38,068173
982,000000	38,108509
981,000000	38,149276
980,000000	38,191322
979,000000	38,235615
978,000000	38,281352
977,000000	38,326535
976,000000	38,370456
975,000000	38,416840
974,000000	38,467098
973,000000	38,516459
972,000000	38,563948
971,000000	38,612594
970,000000	38,662336
969,000000	38,713074
968,000000	38,765151
967,000000	38,816393
966,000000	38,869443
965,000000	38,922575
964,000000	38,974105
963,000000	39,026910
962,000000	39,082704
961,000000	39,133502
960,000000	39,190934
959,000000	39,249698
958,000000	39,309816
957,000000	39,365684
956,000000	39,418387
955,000000	39,469894
954,000000	39,519288
953,000000	39,564518
952,000000	39,611527
951,000000	39,664512
950,000000	39,714314
949,000000	39,762092
948,000000	39,810387
947,000000	39,857795
946,000000	39,903183
945,000000	39,950867
944,000000	39,996509
943,000000	40,042269
942,000000	40,084819
941,000000	40,126833
940,000000	40,165703
939,000000	40,207382
938,000000	40,244088
937,000000	40,282115
936,000000	40,315274
935,000000	40,344820
934,000000	40,384107
933,000000	40,423400
932,000000	40,456325
931,000000	40,490622
930,000000	40,521673
929,000000	40,555304
928,000000	40,589327
927,000000	40,622205
926,000000	40,649005
925,000000	40,678570
924,000000	40,710225
923,000000	40,736657
922,000000	40,765783
921,000000	40,800964
920,000000	40,835985
919,000000	40,865879
918,000000	40,893848
917,000000	40,919504
916,000000	40,949480
915,000000	40,979066
914,000000	41,004672
913,000000	41,030206
912,000000	41,060070
911,000000	41,087447
910,000000	41,120286
909,000000	41,154645
908,000000	41,185000
907,000000	41,222329
906,000000	41,257690
905,000000	41,289778
904,000000	41,327466
903,000000	41,362611
902,000000	41,401759
901,000000	41,439181
900,000000	41,471105
899,000000	41,503236
898,000000	41,542872
897,000000	41,582366
896,000000	41,622821
895,000000	41,665023
894,000000	41,703557
893,000000	41,747491
892,000000	41,788531
891,000000	41,830045
890,000000	41,879382
889,000000	41,930090
888,000000	41,977413
887,000000	42,027661
886,000000	42,081953
885,000000	42,138665
884,000000	42,184553
883,000000	42,233362
882,000000	42,286639
881,000000	42,344065
880,000000	42,401951
879,000000	42,458188
878,000000	42,517038
877,000000	42,576569
876,000000	42,633587
875,000000	42,703151
874,000000	42,775133
873,000000	42,843142
872,000000	42,907301
871,000000	42,963949
870,000000	43,025131
869,000000	43,087090
868,000000	43,154998
867,000000	43,217369
866,000000	43,274187
865,000000	43,341632
864,000000	43,406916
863,000000	43,462098
862,000000	43,518756
861,000000	43,574964
860,000000	45,006584
859,000000	44,963243
858,000000	45,054692
857,000000	45,111924
856,000000	45,234165
855,000000	45,249440
854,000000	45,311976
853,000000	45,359532
852,000000	45,438161
851,000000	45,479402
850,000000	45,521684
849,000000	45,544553
848,000000	45,572830
847,000000	45,581517
846,000000	45,635447
845,000000	45,640927
844,000000	45,639992
843,000000	45,663427
842,000000	45,683248
841,000000	45,707483
840,000000	45,720493
839,000000	45,731436
838,000000	45,753597
837,000000	45,763268
836,000000	45,805116
835,000000	45,829864
834,000000	45,841220
833,000000	45,855561
832,000000	45,904700
831,000000	45,920508
830,000000	45,963262
829,000000	45,975732
828,000000	46,018866
827,000000	46,062104
826,000000	46,089521
825,000000	46,096051
824,000000	46,162278
823,000000	46,209487
822,000000	46,237729
821,000000	46,295781
820,000000	46,314548
819,000000	46,370059
818,000000	46,395018
817,000000	46,432835
816,000000	46,464587
815,000000	46,488752
814,000000	46,512084
813,000000	46,547854
812,000000	46,592961
811,000000	46,611995
810,000000	46,636413
809,000000	46,675721
808,000000	46,712091
807,000000	46,746146
806,000000	46,785584
805,000000	46,822536
804,000000	46,874330
803,000000	46,901131
802,000000	46,923906
801,000000	46,979774
800,000000	47,029082
799,000000	47,072423
798,000000	47,136587
797,000000	47,195486
796,000000	47,260468
795,000000	47,306528
794,000000	47,367503
793,000000	47,426279
792,000000	47,488575
791,000000	47,533075
790,000000	47,616056
789,000000	47,672279
788,000000	47,716461
787,000000	47,754072
786,000000	47,793792
785,000000	47,838596
784,000000	47,869189
783,000000	47,905108
782,000000	47,943538
781,000000	47,976114
780,000000	47,986331
779,000000	48,008535
778,000000	48,022559
777,000000	48,039953
776,000000	48,051631
775,000000	48,059354
774,000000	48,068095
773,000000	48,078185
772,000000	48,079479
771,000000	48,084268
770,000000	48,087884
769,000000	48,106795
768,000000	48,115941
767,000000	48,126882
766,000000	48,136824
765,000000	48,147234
764,000000	48,159033
763,000000	48,165880
762,000000	48,184129
761,000000	48,206388
760,000000	48,218948
759,000000	48,236936
758,000000	48,248608
757,000000	48,259650
756,000000	48,266704
755,000000	48,273325
754,000000	48,277712
753,000000	48,279255
752,000000	48,288532
751,000000	48,295326
750,000000	48,292726
749,000000	48,288331
748,000000	48,302383
747,000000	48,302947
746,000000	48,303152
745,000000	48,309574
744,000000	48,318077
743,000000	48,327909
742,000000	48,320538
741,000000	48,321299
740,000000	48,328452
739,000000	48,342168
738,000000	48,368514
737,000000	48,380138
736,000000	48,394972
735,000000	48,412680
734,000000	48,420012
733,000000	48,434337
732,000000	48,464336
731,000000	48,481628
730,000000	48,486567
729,000000	48,492577
728,000000	48,493874
727,000000	48,486312
726,000000	48,475109
725,000000	48,465660
724,000000	48,459631
723,000000	48,442344
722,000000	48,427419
721,000000	48,412620
720,000000	48,387033
719,000000	48,360185
718,000000	48,331427
717,000000	48,293562
716,000000	48,252426
715,000000	48,218919
714,000000	48,172877
713,000000	48,122881
712,000000	48,091088
711,000000	48,057656
710,000000	48,020409
709,000000	47,986751
708,000000	47,948838
707,000000	47,920186
706,000000	47,888382
705,000000	47,847696
704,000000	47,814987
703,000000	47,780205
702,000000	47,731875
701,000000	47,691703
700,000000	47,646643
699,000000	47,594399
698,000000	47,557392
697,000000	47,518571
696,000000	47,466214
695,000000	47,410680
694,000000	47,353576
693,000000	47,308881
692,000000	47,263232
691,000000	47,212678
690,000000	47,170151
689,000000	47,130048
688,000000	47,083876
687,000000	47,039430
686,000000	46,997952
685,000000	46,959585
684,000000	46,921211
683,000000	46,876021
682,000000	46,837486
681,000000	46,802322
680,000000	46,764363
679,000000	46,711680
678,000000	46,669559
677,000000	46,619441
676,000000	46,554803
675,000000	46,494943
674,000000	46,433733
673,000000	46,362947
672,000000	46,278275
671,000000	46,205150
670,000000	46,137136
669,000000	46,049485
668,000000	45,962656
667,000000	45,875049
666,000000	45,786440
665,000000	45,692377
664,000000	45,603920
663,000000	45,526921
662,000000	45,434671
661,000000	45,344963
660,000000	45,261231
659,000000	45,168141
658,000000	45,078072
657,000000	44,990063
656,000000	44,891560
655,000000	44,785190
654,000000	44,685945
653,000000	44,592324
652,000000	44,493505
651,000000	44,393227
650,000000	44,294635
649,000000	44,192606
648,000000	44,094216
647,000000	43,994038
646,000000	43,887710
645,000000	43,786159
644,000000	43,693577
643,000000	43,597560
642,000000	43,506482
641,000000	43,425643
640,000000	43,343947
639,000000	43,255652
638,000000	43,156631
637,000000	43,073829
636,000000	42,993808
635,000000	42,892317
634,000000	42,793164
633,000000	42,691980
632,000000	42,592162
631,000000	42,490151
630,000000	42,380093
629,000000	42,277854
628,000000	42,170982
627,000000	42,046450
626,000000	41,928366
625,000000	41,817061
624,000000	41,699390
623,000000	41,572746
622,000000	41,463337
621,000000	41,350433
620,000000	41,246100
619,000000	41,129313
618,000000	41,015823
617,000000	40,899142
616,000000	40,781730
615,000000	40,663279
614,000000	40,546409
613,000000	40,427238
612,000000	40,307759
611,000000	40,183691
610,000000	40,050589
609,000000	39,925902
608,000000	39,816096
607,000000	39,697083
606,000000	39,584229
605,000000	39,475166
604,000000	39,371716
603,000000	39,261469
602,000000	39,161462
601,000000	39,063242
600,000000	38,968663
599,000000	38,871609
598,000000	38,775761
597,000000	38,682244
596,000000	38,580409
595,000000	38,486193
594,000000	38,382734
593,000000	38,277525
592,000000	38,173199
591,000000	38,066943
590,000000	37,964023
589,000000	37,860028
588,000000	37,754240
587,000000	37,649690
586,000000	37,539172
585,000000	37,441363
584,000000	37,353927
583,000000	37,263422
582,000000	37,170495
581,000000	37,086119
580,000000	37,001324
579,000000	36,923948
578,000000	36,843070
577,000000	36,762228
576,000000	36,671722
575,000000	36,587312
574,000000	36,494361
573,000000	36,422220
572,000000	36,344154
571,000000	36,268812
570,000000	36,214337
569,000000	36,151146
568,000000	36,093301
567,000000	36,055918
566,000000	36,010985
565,000000	35,966300
564,000000	35,919382
563,000000	35,883496
562,000000	35,837129
561,000000	35,788702
560,000000	35,755743
559,000000	35,703358
558,000000	35,670151
557,000000	35,629229
556,000000	35,584520
555,000000	35,555576
554,000000	35,520281
553,000000	35,494515
552,000000	35,477227
551,000000	35,461256
550,000000	35,438614
549,000000	35,436228
548,000000	35,431098
547,000000	35,429185
546,000000	35,432833
545,000000	35,438966
544,000000	35,439731
543,000000	35,451227
542,000000	35,468605
541,000000	35,493995
540,000000	35,517167
539,000000	35,552299
538,000000	35,591706
537,000000	35,643113
536,000000	35,689237
535,000000	35,752340
534,000000	35,801858
533,000000	35,861132
532,000000	35,920345
531,000000	35,976047
530,000000	36,038243
529,000000	36,094225
528,000000	36,147987
527,000000	36,205343
526,000000	36,271492
525,000000	36,346160
524,000000	36,411776
523,000000	36,483471
522,000000	36,552612
521,000000	36,633185
520,000000	36,717321
519,000000	36,802522
518,000000	36,901070
517,000000	36,998162
516,000000	37,086520
515,000000	37,178526
514,000000	37,267188
513,000000	37,356907
512,000000	37,446766
511,000000	37,532469
510,000000	37,622889
509,000000	37,704514
508,000000	37,795218
507,000000	37,887229
506,000000	37,983193
505,000000	38,080239
504,000000	38,173877
503,000000	38,274432
502,000000	38,357485
501,000000	38,447701
500,000000	38,532851
499,000000	38,615229
498,000000	38,696780
497,000000	38,764332
496,000000	38,831791
495,000000	38,908219
494,000000	38,972509
493,000000	39,046980
492,000000	39,125985
491,000000	39,182952
490,000000	39,239795
489,000000	39,288609
488,000000	39,325864
487,000000	39,358630
486,000000	39,373592
485,000000	39,391419
484,000000	39,403452
483,000000	39,401599
482,000000	39,398262
481,000000	39,405276
480,000000	39,402092
479,000000	39,378831
478,000000	39,337437
477,000000	39,281786
476,000000	39,212618
475,000000	39,134179
474,000000	39,044406
473,000000	38,960882
472,000000	38,859929
471,000000	38,746960
470,000000	38,633639
469,000000	38,511894
468,000000	38,374076
467,000000	38,223410
466,000000	38,050090
465,000000	37,864062
464,000000	37,670742
463,000000	37,470940
462,000000	37,257105
461,000000	37,031443
460,000000	36,793758
459,000000	36,547154
458,000000	36,287125
457,000000	36,017211
456,000000	35,743331
455,000000	35,457339
454,000000	35,160276
453,000000	34,866038
452,000000	34,573968
451,000000	34,278651
450,000000	33,977703
449,000000	33,667078
448,000000	33,356101
447,000000	33,040416
446,000000	32,726578
445,000000	32,409299
444,000000	32,091861
443,000000	31,791353
442,000000	31,501163
441,000000	31,215210
440,000000	30,940826
439,000000	30,678409
438,000000	30,427614
437,000000	30,195362
436,000000	29,981530
435,000000	29,776799
434,000000	29,582464
433,000000	29,394456
432,000000	29,217143
431,000000	29,051217
430,000000	28,887142
429,000000	28,727357
428,000000	28,551092
427,000000	28,344025
426,000000	28,094274
425,000000	27,780820
424,000000	27,394038
423,000000	26,922357
422,000000	26,348538
421,000000	25,673784
420,000000	24,899847
419,000000	24,040228
418,000000	23,110237
417,000000	22,136570
416,000000	21,157883
415,000000	20,203816
414,000000	19,297242
413,000000	18,469115
412,000000	17,736971
411,000000	17,100501
410,000000	16,557887
409,000000	16,096523
408,000000	15,709056
407,000000	15,390145
406,000000	15,125417
405,000000	14,901591
404,000000	14,720813
403,000000	14,570253
402,000000	14,438592
401,000000	14,317264
400,000000	14,199344
399,000000	14,081026
398,000000	13,963683
397,000000	13,847438
396,000000	13,730627
395,000000	13,607661
394,000000	13,486312
393,000000	13,354248
392,000000	13,217832
391,000000	13,081018
390,000000	12,941299
389,000000	12,810693
388,000000	12,689327
387,000000	12,579837
386,000000	12,484091
385,000000	12,389454
384,000000	12,302508
383,000000	12,224137
382,000000	12,157138
381,000000	12,110120
380,000000	12,079007
379,000000	12,004035
378,000000	11,930392
377,000000	11,886437
376,000000	11,873730
375,000000	11,870628
374,000000	11,860694
373,000000	11,842104
372,000000	11,812216
371,000000	11,760708
370,000000	11,677205
369,000000	11,607019
368,000000	11,526669
367,000000	11,441737
366,000000	11,340856
365,000000	11,221932
364,000000	11,088947
363,000000	10,957575
362,000000	10,801632
361,000000	10,649127
360,000000	10,488343
359,000000	10,299661
358,000000	10,100505
357,000000	9,891046
356,000000	9,673852
355,000000	9,455465
354,000000	9,234598
353,000000	9,003585
352,000000	8,765103
351,000000	8,524626
350,000000	8,300991
349,000000	8,072714
348,000000	7,842818
347,000000	7,618465
346,000000	7,399702
345,000000	7,177513
344,000000	6,959194
343,000000	6,752309
342,000000	6,544720
341,000000	6,335937
340,000000	6,127077
339,000000	5,920586
338,000000	5,701661
337,000000	5,480912
336,000000	5,281131
335,000000	5,075410
334,000000	4,862034
333,000000	4,643119
332,000000	4,427390
331,000000	4,223227
330,000000	4,001826
329,000000	3,799586
328,000000	3,567656
327,000000	3,335550
326,000000	3,112355
325,000000	2,885438
324,000000	2,667642
323,000000	2,457732
322,000000	2,249267
321,000000	2,051682
320,000000	1,870181
319,000000	1,667621
318,000000	1,483346
317,000000	1,323388
316,000000	1,171783
315,000000	1,032361
314,000000	0,904661
313,000000	0,786275
312,000000	0,680411
311,000000	0,588169
310,000000	0,500797
309,000000	0,431492
308,000000	0,368173
307,000000	0,317929
306,000000	0,268921
305,000000	0,235610
304,000000	0,206673
303,000000	0,184406
302,000000	0,164671
301,000000	0,152744
300,000000	0,141107
299,000000	0,132564
298,000000	0,127705
297,000000	0,125813
296,000000	0,122504
295,000000	0,118807
294,000000	0,120068
293,000000	0,118686
292,000000	0,120095
291,000000	0,121751
290,000000	0,120532
289,000000	0,121624
288,000000	0,122491
287,000000	0,124682
286,000000	0,123809
285,000000	0,128610
284,000000	0,129580
283,000000	0,131465
282,000000	0,132670
281,000000	0,130557
280,000000	0,135358
279,000000	0,133651
278,000000	0,133805
277,000000	0,136590
276,000000	0,133307
275,000000	0,135971
274,000000	0,136245
273,000000	0,137280
272,000000	0,135451
271,000000	0,138404
270,000000	0,141047
269,000000	0,139226
268,000000	0,137914
267,000000	0,139817
266,000000	0,140921
265,000000	0,138729
264,000000	0,140345
263,000000	0,139716
262,000000	0,139737
261,000000	0,140316
260,000000	0,141302
259,000000	0,137502
258,000000	0,138478
257,000000	0,138517
256,000000	0,138556
255,000000	0,137543
254,000000	0,137068
253,000000	0,138474
252,000000	0,137868
251,000000	0,135286
250,000000	0,137107
249,000000	0,139218
248,000000	0,136779
247,000000	0,134622
246,000000	0,134707
245,000000	0,134589
244,000000	0,133933
243,000000	0,135854
242,000000	0,135231
241,000000	0,136800
240,000000	0,139478
239,000000	0,141601
238,000000	0,141170
237,000000	0,143189
236,000000	0,144228
235,000000	0,143057
234,000000	0,143090
233,000000	0,144006
232,000000	0,144189
231,000000	0,143926
230,000000	0,144954
229,000000	0,144309
228,000000	0,144005
227,000000	0,143386
226,000000	0,144357
225,000000	0,146071
224,000000	0,145873
223,000000	0,143791
222,000000	0,145423
221,000000	0,144331
220,000000	0,143539
219,000000	0,144207
218,000000	0,143405
217,000000	0,141996
216,000000	0,145080
215,000000	0,144852
214,000000	0,145323
213,000000	0,146201
212,000000	0,147875
211,000000	0,146718
210,000000	0,147646
209,000000	0,150443
208,000000	0,149999
207,000000	0,151004
206,000000	0,155014
205,000000	0,156156
204,000000	0,156003
203,000000	0,158488
202,000000	0,160979
201,000000	0,164137
200,000000	0,167256
