PE UV       SUBTECH     SPECTRUM    ASCII       PEDS        4.00        
   -1
0% or Blocked Beam Baseline.Correction.asc
22/05/19
15:25:08.00
22/05/19
15:25:08.00
Administrator

400.000000
1
Lambda 1050
1050L1808311
PerkinElmer UV WinLab 6.4.0.973 / 2.02.11 Lambda 900 UV/VIS/NIR. May 23 2018 11:23:04

0
0
3350/servo 860.8/2
0
0
UV/VIS
0
1
1
CommonBeamDepol.RBeamAtt.SBeamAtt.60mm sphere
0
0
0
0
Program
 
0
3350/0.2 860.8/1
0
0
0
 
 
 
0
 
860.8
319.2
860.8
Front
100
on
S:100 R:100
 
0
0
0
 
0
 
 
 
0
 
 
0
0
0
0
0
 
 
 
 
0
0


0
0
#HDR
-1
-1
#GR
nm
%T
1.0
0.0
850.000000
-3.000000
151
8
-0.001300
-0.029900
#DATA
850.000000	-0.012300
847.000000	-0.027500
844.000000	-0.027700
841.000000	-0.029900
838.000000	-0.024100
835.000000	-0.021600
832.000000	-0.018400
829.000000	-0.019300
826.000000	-0.015600
823.000000	-0.015200
820.000000	-0.012000
817.000000	-0.012900
814.000000	-0.011300
811.000000	-0.011200
808.000000	-0.009400
805.000000	-0.009700
802.000000	-0.008900
799.000000	-0.011300
796.000000	-0.011100
793.000000	-0.010400
790.000000	-0.009200
787.000000	-0.011400
784.000000	-0.010300
781.000000	-0.010400
778.000000	-0.009800
775.000000	-0.012000
772.000000	-0.009800
769.000000	-0.011200
766.000000	-0.009300
763.000000	-0.010400
760.000000	-0.010200
757.000000	-0.011500
754.000000	-0.009300
751.000000	-0.011300
748.000000	-0.009200
745.000000	-0.009800
742.000000	-0.009400
739.000000	-0.011100
736.000000	-0.009700
733.000000	-0.011000
730.000000	-0.009100
727.000000	-0.010600
724.000000	-0.010300
721.000000	-0.011600
718.000000	-0.008900
715.000000	-0.011300
712.000000	-0.008900
709.000000	-0.009900
706.000000	-0.009200
703.000000	-0.010500
700.000000	-0.009200
697.000000	-0.010100
694.000000	-0.009300
691.000000	-0.010000
688.000000	-0.008800
685.000000	-0.010800
682.000000	-0.009100
679.000000	-0.010000
676.000000	-0.009800
673.000000	-0.010900
670.000000	-0.009800
667.000000	-0.010300
664.000000	-0.009000
661.000000	-0.011000
658.000000	-0.010300
655.000000	-0.010700
652.000000	-0.009400
649.000000	-0.010200
646.000000	-0.009300
643.000000	-0.009800
640.000000	-0.009800
637.000000	-0.010700
634.000000	-0.009800
631.000000	-0.010400
628.000000	-0.009400
625.000000	-0.010000
622.000000	-0.009800
619.000000	-0.010200
616.000000	-0.009900
613.000000	-0.009900
610.000000	-0.009000
607.000000	-0.010500
604.000000	-0.009700
601.000000	-0.010400
598.000000	-0.009600
595.000000	-0.010500
592.000000	-0.009900
589.000000	-0.010000
586.000000	-0.008900
583.000000	-0.010300
580.000000	-0.009300
577.000000	-0.010200
574.000000	-0.010000
571.000000	-0.010800
568.000000	-0.008800
565.000000	-0.009900
562.000000	-0.009400
559.000000	-0.012200
556.000000	-0.011600
553.000000	-0.012400
550.000000	-0.010900
547.000000	-0.012400
544.000000	-0.011500
541.000000	-0.012300
538.000000	-0.011700
535.000000	-0.012000
532.000000	-0.011400
529.000000	-0.011400
526.000000	-0.010300
523.000000	-0.010600
520.000000	-0.008100
517.000000	-0.007500
514.000000	-0.005200
511.000000	-0.003500
508.000000	-0.002000
505.000000	-0.001900
502.000000	-0.001300
499.000000	-0.003200
496.000000	-0.003900
493.000000	-0.007400
490.000000	-0.008900
487.000000	-0.013300
484.000000	-0.014700
481.000000	-0.018500
478.000000	-0.013300
475.000000	-0.010900
472.000000	-0.008800
469.000000	-0.007500
466.000000	-0.004400
463.000000	-0.004400
460.000000	-0.002200
457.000000	-0.003700
454.000000	-0.003500
451.000000	-0.005000
448.000000	-0.004900
445.000000	-0.006200
442.000000	-0.009600
439.000000	-0.008500
436.000000	-0.007300
433.000000	-0.008000
430.000000	-0.006800
427.000000	-0.007900
424.000000	-0.006800
421.000000	-0.007800
418.000000	-0.007200
415.000000	-0.007600
412.000000	-0.005900
409.000000	-0.007200
406.000000	-0.005800
403.000000	-0.006300
400.000000	-0.004800
