PE UV       SUBTECH     SPECTRUM    ASCII       PEDS        4.00        
   -1
c7.Sample.asc
22/05/19
15:56:37.00
22/05/19
15:56:37.00
Administrator

400.000000
1
Lambda 1050
1050L1808311
PerkinElmer UV WinLab 6.4.0.973 / 2.02.11 Lambda 900 UV/VIS/NIR. May 23 2018 11:23:04

0
0
3350/servo 860.8/2
0
0
UV/VIS
1
1
1
CommonBeamDepol.RBeamAtt.SBeamAtt.60mm sphere
0
0
0
0
Program
 
0
3350/0.2 860.8/1
0
0
0
 
 
 
0
 
860.8
319.2
860.8
Front
100
on
S:100 R:100
 
0
0
0
 
0
 
 
 
0
 
 
0
0
0
0
0
 
 
 
 
0
0


0
0
#HDR
-1
-1
#GR
nm
%T
1.0
0.0
850.000000
-3.000000
151
8
66.415859
42.409525
#DATA
850.000000	65.854411
847.000000	65.771271
844.000000	65.707850
841.000000	65.639379
838.000000	65.303864
835.000000	65.411929
832.000000	65.114001
829.000000	65.086085
826.000000	64.923904
823.000000	65.042308
820.000000	64.965574
817.000000	64.975094
814.000000	65.065101
811.000000	65.012420
808.000000	65.222943
805.000000	65.133852
802.000000	65.278356
799.000000	65.371958
796.000000	65.535044
793.000000	65.692387
790.000000	65.706416
787.000000	65.924952
784.000000	66.102799
781.000000	66.184296
778.000000	66.303715
775.000000	66.306604
772.000000	66.388751
769.000000	66.415859
766.000000	66.363864
763.000000	66.357933
760.000000	66.133896
757.000000	66.131458
754.000000	65.979530
751.000000	65.833533
748.000000	65.645182
745.000000	65.506056
742.000000	65.366823
739.000000	65.232805
736.000000	65.080202
733.000000	65.023983
730.000000	64.973380
727.000000	64.954605
724.000000	64.962484
721.000000	65.004663
718.000000	65.052758
715.000000	65.170665
712.000000	65.280313
709.000000	65.417240
706.000000	65.514365
703.000000	65.687024
700.000000	65.828771
697.000000	65.915439
694.000000	65.977422
691.000000	66.041819
688.000000	65.911469
685.000000	65.836789
682.000000	65.738066
679.000000	65.625441
676.000000	65.412002
673.000000	65.280881
670.000000	65.104418
667.000000	64.943257
664.000000	64.809189
661.000000	64.676209
658.000000	64.631643
655.000000	64.564970
652.000000	64.552120
649.000000	64.651814
646.000000	64.768984
643.000000	64.917111
640.000000	65.053808
637.000000	65.241000
634.000000	65.280485
631.000000	65.293129
628.000000	65.382909
625.000000	65.301639
622.000000	65.177764
619.000000	65.039521
616.000000	64.871990
613.000000	64.629181
610.000000	64.411085
607.000000	64.245225
604.000000	64.144094
601.000000	64.060004
598.000000	64.076479
595.000000	64.129940
592.000000	64.218615
589.000000	64.347351
586.000000	64.478548
583.000000	64.586722
580.000000	64.698978
577.000000	64.604547
574.000000	64.519680
571.000000	64.349135
568.000000	64.156318
565.000000	63.877001
562.000000	63.720136
559.000000	63.528294
556.000000	63.445437
553.000000	63.429138
550.000000	63.533483
547.000000	63.681612
544.000000	63.861293
541.000000	64.081672
538.000000	64.306421
535.000000	64.395065
532.000000	64.357600
529.000000	64.242879
526.000000	64.063457
523.000000	63.883352
520.000000	63.616848
517.000000	63.406189
514.000000	63.187783
511.000000	63.040176
508.000000	62.899894
505.000000	62.853138
502.000000	62.701227
499.000000	62.531355
496.000000	62.174651
493.000000	61.760975
490.000000	61.367942
487.000000	61.056751
484.000000	61.043767
481.000000	61.343466
478.000000	61.603350
475.000000	61.756699
472.000000	61.627845
469.000000	61.215022
466.000000	60.675681
463.000000	60.171462
460.000000	59.716622
457.000000	59.448396
454.000000	59.387451
451.000000	59.246891
448.000000	58.910311
445.000000	58.378224
442.000000	57.826455
439.000000	57.212285
436.000000	56.668746
433.000000	56.151009
430.000000	55.357880
427.000000	54.025532
424.000000	52.215414
421.000000	50.069468
418.000000	47.702959
415.000000	45.345671
412.000000	43.631977
409.000000	42.678194
406.000000	42.409525
403.000000	42.517216
400.000000	42.871998
