PE UV       SUBTECH     SPECTRUM    ASCII       PEDS        4.00        
   -1
d.Sample.asc
22/05/19
15:43:31.00
22/05/19
15:43:31.00
Administrator

400.000000
1
Lambda 1050
1050L1808311
PerkinElmer UV WinLab 6.4.0.973 / 2.02.11 Lambda 900 UV/VIS/NIR. May 23 2018 11:23:04

0
0
3350/servo 860.8/2
0
0
UV/VIS
1
1
1
CommonBeamDepol.RBeamAtt.SBeamAtt.60mm sphere
0
0
0
0
Program
 
0
3350/0.2 860.8/1
0
0
0
 
 
 
0
 
860.8
319.2
860.8
Front
100
on
S:100 R:100
 
0
0
0
 
0
 
 
 
0
 
 
0
0
0
0
0
 
 
 
 
0
0


0
0
#HDR
-1
-1
#GR
nm
%T
1.0
0.0
850.000000
-3.000000
151
8
80.577397
51.419036
#DATA
850.000000	80.364459
847.000000	80.239261
844.000000	80.577397
841.000000	80.490426
838.000000	80.510249
835.000000	80.493565
832.000000	80.566060
829.000000	80.440468
826.000000	80.422838
823.000000	80.323310
820.000000	80.232705
817.000000	80.110714
814.000000	80.058796
811.000000	79.919655
808.000000	80.006828
805.000000	79.614079
802.000000	79.503994
799.000000	79.390972
796.000000	79.198235
793.000000	79.129990
790.000000	78.957989
787.000000	78.817371
784.000000	78.857950
781.000000	78.678659
778.000000	78.717430
775.000000	78.603725
772.000000	78.631582
769.000000	78.678657
766.000000	78.758539
763.000000	78.809327
760.000000	78.878688
757.000000	78.990845
754.000000	79.006842
751.000000	79.134884
748.000000	79.248022
745.000000	79.280665
742.000000	79.366105
739.000000	79.415664
736.000000	79.374349
733.000000	79.325249
730.000000	79.321184
727.000000	79.196923
724.000000	79.092147
721.000000	78.930402
718.000000	78.771535
715.000000	78.609041
712.000000	78.418742
709.000000	78.236776
706.000000	78.024424
703.000000	77.865286
700.000000	77.746949
697.000000	77.640471
694.000000	77.567354
691.000000	77.591266
688.000000	77.439578
685.000000	77.497871
682.000000	77.573697
679.000000	77.678119
676.000000	77.693708
673.000000	77.807383
670.000000	77.953119
667.000000	78.012295
664.000000	78.067857
661.000000	78.000200
658.000000	78.054347
655.000000	77.916745
652.000000	77.749577
649.000000	77.583759
646.000000	77.407480
643.000000	77.246662
640.000000	77.056971
637.000000	76.852774
634.000000	76.670517
631.000000	76.477583
628.000000	76.447643
625.000000	76.317869
622.000000	76.303237
619.000000	76.334579
616.000000	76.417380
613.000000	76.513041
610.000000	76.530546
607.000000	76.630488
604.000000	76.710703
601.000000	76.699126
598.000000	76.615428
595.000000	76.529598
592.000000	76.311332
589.000000	76.045419
586.000000	75.837456
583.000000	75.615596
580.000000	75.433428
577.000000	75.199992
574.000000	75.111935
571.000000	75.084491
568.000000	75.157769
565.000000	75.194127
562.000000	75.341614
559.000000	75.463623
556.000000	75.453804
553.000000	75.439298
550.000000	75.333866
547.000000	75.120330
544.000000	74.839297
541.000000	74.581061
538.000000	74.322941
535.000000	74.042517
532.000000	73.872814
529.000000	73.764814
526.000000	73.795901
523.000000	73.891642
520.000000	73.963157
517.000000	73.981995
514.000000	73.887613
511.000000	73.757694
508.000000	73.419880
505.000000	73.057064
502.000000	72.649700
499.000000	72.349831
496.000000	72.086467
493.000000	72.005090
490.000000	71.957647
487.000000	72.065017
484.000000	72.020959
481.000000	71.929564
478.000000	71.650060
475.000000	71.293128
472.000000	70.845794
469.000000	70.428257
466.000000	70.126752
463.000000	69.972640
460.000000	69.883313
457.000000	69.686131
454.000000	69.439589
451.000000	68.933627
448.000000	68.295725
445.000000	67.665544
442.000000	67.316571
439.000000	66.904830
436.000000	66.477027
433.000000	65.718574
430.000000	64.632492
427.000000	63.010929
424.000000	61.129371
421.000000	58.914048
418.000000	56.353832
415.000000	53.936962
412.000000	52.211459
409.000000	51.419036
406.000000	51.435758
403.000000	51.873394
400.000000	52.605430
