PE UV       SUBTECH     SPECTRUM    ASCII       PEDS        4.00        
   -1
d7.Sample.asc
22/05/19
16:02:48.00
22/05/19
16:02:48.00
Administrator

400.000000
1
Lambda 1050
1050L1808311
PerkinElmer UV WinLab 6.4.0.973 / 2.02.11 Lambda 900 UV/VIS/NIR. May 23 2018 11:23:04

0
0
3350/servo 860.8/2
0
0
UV/VIS
1
1
1
CommonBeamDepol.RBeamAtt.SBeamAtt.60mm sphere
0
0
0
0
Program
 
0
3350/0.2 860.8/1
0
0
0
 
 
 
0
 
860.8
319.2
860.8
Front
100
on
S:100 R:100
 
0
0
0
 
0
 
 
 
0
 
 
0
0
0
0
0
 
 
 
 
0
0


0
0
#HDR
-1
-1
#GR
nm
%T
1.0
0.0
850.000000
-3.000000
151
8
65.187582
40.912292
#DATA
850.000000	65.040135
847.000000	64.982073
844.000000	65.052858
841.000000	65.187582
838.000000	64.871816
835.000000	64.855983
832.000000	64.814217
829.000000	64.800963
826.000000	64.705952
823.000000	64.554305
820.000000	64.534727
817.000000	64.351133
814.000000	64.275041
811.000000	64.243784
808.000000	64.213251
805.000000	63.940168
802.000000	63.855884
799.000000	63.797587
796.000000	63.774588
793.000000	63.768391
790.000000	63.774209
787.000000	63.726442
784.000000	63.770921
781.000000	63.857556
778.000000	63.981780
775.000000	63.952076
772.000000	64.080054
769.000000	64.242167
766.000000	64.330895
763.000000	64.451466
760.000000	64.487311
757.000000	64.596931
754.000000	64.758454
751.000000	64.747459
748.000000	64.784243
745.000000	64.790905
742.000000	64.770960
739.000000	64.699522
736.000000	64.622028
733.000000	64.447737
730.000000	64.401043
727.000000	64.229681
724.000000	64.115210
721.000000	63.952657
718.000000	63.819210
715.000000	63.779232
712.000000	63.635742
709.000000	63.529944
706.000000	63.453599
703.000000	63.477099
700.000000	63.481978
697.000000	63.505109
694.000000	63.578990
691.000000	63.679439
688.000000	63.678822
685.000000	63.789228
682.000000	63.870009
679.000000	63.997473
676.000000	64.009053
673.000000	64.099834
670.000000	64.098604
667.000000	64.062052
664.000000	63.998837
661.000000	63.909805
658.000000	63.795609
655.000000	63.589838
652.000000	63.409341
649.000000	63.307329
646.000000	63.138751
643.000000	63.009821
640.000000	62.912635
637.000000	62.893549
634.000000	62.876845
631.000000	62.827724
628.000000	62.967283
625.000000	62.969391
622.000000	63.060595
619.000000	63.164296
616.000000	63.270301
613.000000	63.306843
610.000000	63.228379
607.000000	63.233933
604.000000	63.144126
601.000000	62.942579
598.000000	62.812589
595.000000	62.647895
592.000000	62.427972
589.000000	62.299502
586.000000	62.172204
583.000000	62.126599
580.000000	62.130699
577.000000	62.107893
574.000000	62.165543
571.000000	62.275601
568.000000	62.339432
565.000000	62.424452
562.000000	62.478073
559.000000	62.420807
556.000000	62.326694
553.000000	62.127971
550.000000	61.956766
547.000000	61.767542
544.000000	61.589633
541.000000	61.553018
538.000000	61.602457
535.000000	61.733648
532.000000	61.920148
529.000000	62.148543
526.000000	62.391811
523.000000	62.528279
520.000000	62.465108
517.000000	62.217486
514.000000	61.755384
511.000000	61.261181
508.000000	60.749560
505.000000	60.369282
502.000000	60.100443
499.000000	59.974560
496.000000	59.911718
493.000000	59.899663
490.000000	59.802696
487.000000	59.683120
484.000000	59.529613
481.000000	59.594397
478.000000	59.498923
475.000000	59.341163
472.000000	59.168718
469.000000	59.017090
466.000000	58.852260
463.000000	58.628711
460.000000	58.303501
457.000000	57.855005
454.000000	57.383276
451.000000	56.943197
448.000000	56.521565
445.000000	56.232766
442.000000	56.072233
439.000000	55.702450
436.000000	55.030022
433.000000	54.155837
430.000000	53.164834
427.000000	51.955977
424.000000	50.364705
421.000000	48.243943
418.000000	45.773714
415.000000	43.511984
412.000000	41.945471
409.000000	41.073109
406.000000	40.912292
403.000000	41.080814
400.000000	41.476453
