PE UV       SUBTECH     SPECTRUM    ASCII       PEDS        4.00        
   -1
sampleC_T.Sample.asc
22/01/26
15:25:11.00
22/01/26
15:25:11.00
Administrator

200,000000
1
Lambda 1050
1050L1808311
PerkinElmer UV WinLab 6.4.0.973 / 2.02.11 Lambda 900 UV/VIS/NIR, May 23 2018 11:23:04

0
0
3350/servo 860,8/2
0
0
UV/VIS
1
1
1
CommonBeamDepol,RBeamAtt,SBeamAtt,60mm sphere
0
0
0
0
Program
Program
3350/servo 860,8/2
3350/0,2 860,8/0,2
3350/0,2 860,8/0,2
0
1
 
 
 
0
 
860,8
319,2
860,8
Front
100
on
S:100 R:100
 
0
0
0
 
0
 
 
 
0
 
 
0
0
0
0
0
 
 
 
 
0
0


0
0
#HDR
-1
-1
#GR
nm
%T
1.0
0.0
2000,000000
-1,000000
1801
8
336,593158
58,322819
#DATA
2000,000000	91,275659
1999,000000	91,293280
1998,000000	91,285089
1997,000000	91,315421
1996,000000	91,300173
1995,000000	91,299524
1994,000000	91,346385
1993,000000	91,376794
1992,000000	91,361148
1991,000000	91,352665
1990,000000	91,359704
1989,000000	91,387784
1988,000000	91,513156
1987,000000	91,493939
1986,000000	91,496973
1985,000000	91,465632
1984,000000	91,500804
1983,000000	91,535952
1982,000000	91,548473
1981,000000	91,576193
1980,000000	91,692290
1979,000000	91,802765
1978,000000	91,784774
1977,000000	91,765568
1976,000000	91,792706
1975,000000	91,679050
1974,000000	91,642762
1973,000000	91,699524
1972,000000	91,686058
1971,000000	91,751921
1970,000000	91,774629
1969,000000	91,761621
1968,000000	91,787259
1967,000000	91,828865
1966,000000	91,842956
1965,000000	91,804576
1964,000000	91,897951
1963,000000	91,928432
1962,000000	91,933408
1961,000000	91,920559
1960,000000	91,945788
1959,000000	91,988979
1958,000000	91,990805
1957,000000	92,043717
1956,000000	92,010177
1955,000000	92,047049
1954,000000	92,051855
1953,000000	92,098381
1952,000000	92,103217
1951,000000	92,117993
1950,000000	92,169229
1949,000000	92,212926
1948,000000	92,217310
1947,000000	92,230617
1946,000000	92,293490
1945,000000	92,306084
1944,000000	92,278644
1943,000000	92,312275
1942,000000	92,332462
1941,000000	92,372670
1940,000000	92,425621
1939,000000	92,408771
1938,000000	92,462173
1937,000000	92,516001
1936,000000	92,484503
1935,000000	92,526507
1934,000000	92,531694
1933,000000	92,565569
1932,000000	92,568776
1931,000000	92,549156
1930,000000	92,558606
1929,000000	92,577743
1928,000000	92,602651
1927,000000	92,636733
1926,000000	92,651935
1925,000000	92,674906
1924,000000	92,686241
1923,000000	92,711373
1922,000000	92,684164
1921,000000	92,689437
1920,000000	92,708622
1919,000000	92,763900
1918,000000	92,771395
1917,000000	92,756252
1916,000000	92,722253
1915,000000	92,729096
1914,000000	92,747996
1913,000000	92,778888
1912,000000	92,775972
1911,000000	92,850721
1910,000000	92,905477
1909,000000	92,966056
1908,000000	93,023956
1907,000000	93,006391
1906,000000	93,034209
1905,000000	93,016096
1904,000000	92,982967
1903,000000	92,950724
1902,000000	92,902672
1901,000000	92,877588
1900,000000	92,825869
1899,000000	92,757019
1898,000000	92,739911
1897,000000	92,782194
1896,000000	92,776505
1895,000000	92,763917
1894,000000	92,771252
1893,000000	92,753042
1892,000000	92,697247
1891,000000	92,674406
1890,000000	92,642019
1889,000000	92,647941
1888,000000	92,648815
1887,000000	92,650045
1886,000000	92,679844
1885,000000	92,660329
1884,000000	92,628066
1883,000000	92,637709
1882,000000	92,609420
1881,000000	92,591756
1880,000000	92,564636
1879,000000	92,558652
1878,000000	92,543737
1877,000000	92,512368
1876,000000	92,475538
1875,000000	92,461472
1874,000000	92,464555
1873,000000	92,449475
1872,000000	92,416916
1871,000000	92,414214
1870,000000	92,399747
1869,000000	92,389244
1868,000000	92,372721
1867,000000	92,378126
1866,000000	92,392444
1865,000000	92,397184
1864,000000	92,407684
1863,000000	92,388400
1862,000000	92,345768
1861,000000	92,316132
1860,000000	92,322664
1859,000000	92,358807
1858,000000	92,323929
1857,000000	92,265423
1856,000000	92,247089
1855,000000	92,227952
1854,000000	92,227525
1853,000000	92,222541
1852,000000	92,216690
1851,000000	92,177194
1850,000000	92,121091
1849,000000	92,134122
1848,000000	92,148287
1847,000000	92,113401
1846,000000	92,080971
1845,000000	92,057709
1844,000000	92,039206
1843,000000	92,015131
1842,000000	91,989857
1841,000000	91,961778
1840,000000	91,957441
1839,000000	91,944620
1838,000000	91,877507
1837,000000	91,847313
1836,000000	91,845327
1835,000000	91,823687
1834,000000	91,807264
1833,000000	91,784843
1832,000000	91,767327
1831,000000	91,746920
1830,000000	91,728462
1829,000000	91,703452
1828,000000	91,667441
1827,000000	91,633387
1826,000000	91,575078
1825,000000	91,532862
1824,000000	91,548596
1823,000000	91,539896
1822,000000	91,479523
1821,000000	91,327986
1820,000000	91,222563
1819,000000	91,163355
1818,000000	91,114521
1817,000000	91,085441
1816,000000	91,052884
1815,000000	91,009443
1814,000000	91,006493
1813,000000	90,978229
1812,000000	90,955849
1811,000000	90,934246
1810,000000	90,910571
1809,000000	90,868247
1808,000000	90,840614
1807,000000	90,824183
1806,000000	90,799872
1805,000000	90,762274
1804,000000	90,742602
1803,000000	90,713719
1802,000000	90,665102
1801,000000	90,635817
1800,000000	90,593739
1799,000000	90,557670
1798,000000	90,542923
1797,000000	90,506490
1796,000000	90,484068
1795,000000	90,477696
1794,000000	90,461208
1793,000000	90,438707
1792,000000	90,418703
1791,000000	90,373446
1790,000000	90,334548
1789,000000	90,304204
1788,000000	90,297650
1787,000000	90,239441
1786,000000	90,216372
1785,000000	90,193982
1784,000000	90,170341
1783,000000	90,136294
1782,000000	90,120631
1781,000000	90,088570
1780,000000	90,096994
1779,000000	90,034448
1778,000000	90,022765
1777,000000	89,985861
1776,000000	89,980330
1775,000000	89,926295
1774,000000	89,920285
1773,000000	89,900542
1772,000000	89,862075
1771,000000	89,845683
1770,000000	89,853485
1769,000000	89,816683
1768,000000	89,818450
1767,000000	89,805468
1766,000000	89,765735
1765,000000	89,742695
1764,000000	89,750142
1763,000000	89,713131
1762,000000	89,720957
1761,000000	89,707973
1760,000000	89,689599
1759,000000	89,631007
1758,000000	89,625548
1757,000000	89,599808
1756,000000	89,584322
1755,000000	89,553378
1754,000000	89,569728
1753,000000	89,563878
1752,000000	89,554656
1751,000000	89,510927
1750,000000	89,503838
1749,000000	89,460174
1748,000000	89,443582
1747,000000	89,425648
1746,000000	89,415669
1745,000000	89,424938
1744,000000	89,415168
1743,000000	89,381736
1742,000000	89,364052
1741,000000	89,343898
1740,000000	89,329355
1739,000000	89,348661
1738,000000	89,300736
1737,000000	89,305463
1736,000000	89,285726
1735,000000	89,278167
1734,000000	89,297105
1733,000000	89,277056
1732,000000	89,275111
1731,000000	89,240674
1730,000000	89,237074
1729,000000	89,232574
1728,000000	89,236566
1727,000000	89,217562
1726,000000	89,222878
1725,000000	89,197294
1724,000000	89,211502
1723,000000	89,210147
1722,000000	89,232050
1721,000000	89,190754
1720,000000	89,188020
1719,000000	89,178083
1718,000000	89,187507
1717,000000	89,177949
1716,000000	89,163763
1715,000000	89,147213
1714,000000	89,165374
1713,000000	89,140550
1712,000000	89,126720
1711,000000	89,092043
1710,000000	89,124133
1709,000000	89,080207
1708,000000	89,069669
1707,000000	89,053858
1706,000000	89,091180
1705,000000	89,034856
1704,000000	89,036182
1703,000000	88,982539
1702,000000	88,998304
1701,000000	88,976288
1700,000000	88,991044
1699,000000	88,963113
1698,000000	88,977149
1697,000000	88,958317
1696,000000	88,978647
1695,000000	88,935945
1694,000000	88,964656
1693,000000	88,913903
1692,000000	88,934116
1691,000000	88,890760
1690,000000	88,895213
1689,000000	88,919943
1688,000000	88,916760
1687,000000	88,878329
1686,000000	88,927229
1685,000000	88,926026
1684,000000	88,930934
1683,000000	88,906407
1682,000000	88,922463
1681,000000	88,930343
1680,000000	88,955807
1679,000000	88,951371
1678,000000	88,969702
1677,000000	88,984885
1676,000000	89,009274
1675,000000	89,016458
1674,000000	89,047238
1673,000000	89,054654
1672,000000	89,087219
1671,000000	89,125341
1670,000000	89,143821
1669,000000	89,148167
1668,000000	89,170479
1667,000000	89,203148
1666,000000	89,231950
1665,000000	89,268800
1664,000000	89,314831
1663,000000	89,342776
1662,000000	89,359278
1661,000000	89,378294
1660,000000	89,420624
1659,000000	89,407815
1658,000000	89,461849
1657,000000	89,462463
1656,000000	89,485095
1655,000000	89,484175
1654,000000	89,541179
1653,000000	89,544837
1652,000000	89,583598
1651,000000	89,560835
1650,000000	89,594730
1649,000000	89,617424
1648,000000	89,664959
1647,000000	89,650703
1646,000000	89,676239
1645,000000	89,693459
1644,000000	89,725430
1643,000000	89,751740
1642,000000	89,766748
1641,000000	89,784508
1640,000000	89,819029
1639,000000	89,844178
1638,000000	89,883282
1637,000000	89,887098
1636,000000	89,911343
1635,000000	89,936989
1634,000000	89,966197
1633,000000	89,981529
1632,000000	90,024402
1631,000000	90,040320
1630,000000	90,060087
1629,000000	90,068596
1628,000000	90,095433
1627,000000	90,049489
1626,000000	89,931895
1625,000000	89,650337
1624,000000	89,510503
1623,000000	89,519864
1622,000000	89,573991
1621,000000	89,584534
1620,000000	89,587981
1619,000000	89,595047
1618,000000	89,617500
1617,000000	89,640226
1616,000000	89,684045
1615,000000	89,717918
1614,000000	89,736171
1613,000000	89,707630
1612,000000	89,895839
1611,000000	90,049107
1610,000000	90,061338
1609,000000	90,068219
1608,000000	90,094670
1607,000000	90,087772
1606,000000	90,027486
1605,000000	89,903849
1604,000000	89,927359
1603,000000	89,992234
1602,000000	90,144450
1601,000000	90,172019
1600,000000	90,120016
1599,000000	89,978304
1598,000000	89,971744
1597,000000	90,065333
1596,000000	90,236165
1595,000000	90,215627
1594,000000	90,150611
1593,000000	90,021987
1592,000000	90,040738
1591,000000	90,129933
1590,000000	90,281781
1589,000000	90,277208
1588,000000	90,204561
1587,000000	90,067453
1586,000000	90,169450
1585,000000	90,296644
1584,000000	90,222514
1583,000000	90,078523
1582,000000	90,159176
1581,000000	90,310947
1580,000000	90,309126
1579,000000	90,216242
1578,000000	90,171635
1577,000000	90,302537
1576,000000	90,282728
1575,000000	90,184529
1574,000000	90,051103
1573,000000	90,132090
1572,000000	90,263414
1571,000000	90,264452
1570,000000	90,259814
1569,000000	90,256929
1568,000000	90,247202
1567,000000	90,244005
1566,000000	90,130204
1565,000000	90,097021
1564,000000	90,223631
1563,000000	90,209255
1562,000000	90,201913
1561,000000	90,100235
1560,000000	90,069018
1559,000000	90,160995
1558,000000	90,131084
1557,000000	90,126483
1556,000000	90,130557
1555,000000	90,020718
1554,000000	89,892762
1553,000000	89,977779
1552,000000	90,060087
1551,000000	90,035353
1550,000000	90,034206
1549,000000	90,028067
1548,000000	90,015976
1547,000000	89,900786
1546,000000	89,771751
1545,000000	89,744329
1544,000000	89,829488
1543,000000	89,905827
1542,000000	89,888902
1541,000000	89,864656
1540,000000	89,834894
1539,000000	89,822120
1538,000000	89,783334
1537,000000	89,744663
1536,000000	89,715093
1535,000000	89,673813
1534,000000	89,643839
1533,000000	89,619671
1532,000000	89,473472
1531,000000	89,355381
1530,000000	89,446128
1529,000000	89,516877
1528,000000	89,491558
1527,000000	89,444528
1526,000000	89,409176
1525,000000	89,388632
1524,000000	89,359230
1523,000000	89,341666
1522,000000	89,304455
1521,000000	89,153804
1520,000000	89,162327
1519,000000	89,222211
1518,000000	89,196674
1517,000000	89,170534
1516,000000	89,138386
1515,000000	89,108484
1514,000000	88,958210
1513,000000	88,966442
1512,000000	89,013358
1511,000000	88,989294
1510,000000	88,951587
1509,000000	88,945613
1508,000000	88,939480
1507,000000	88,896471
1506,000000	88,857886
1505,000000	88,831790
1504,000000	88,800681
1503,000000	88,649998
1502,000000	88,671784
1501,000000	88,736566
1500,000000	88,717554
1499,000000	88,707940
1498,000000	88,675013
1497,000000	88,522946
1496,000000	88,560042
1495,000000	88,585956
1494,000000	88,542191
1493,000000	88,538103
1492,000000	88,508481
1491,000000	88,474103
1490,000000	88,475028
1489,000000	88,452671
1488,000000	88,417572
1487,000000	88,413456
1486,000000	88,394926
1485,000000	88,377164
1484,000000	88,351389
1483,000000	88,345721
1482,000000	88,320108
1481,000000	88,318925
1480,000000	88,293542
1479,000000	88,281739
1478,000000	88,268365
1477,000000	88,258182
1476,000000	88,231979
1475,000000	88,227663
1474,000000	88,205437
1473,000000	88,197334
1472,000000	88,166976
1471,000000	88,148147
1470,000000	88,143405
1469,000000	88,123813
1468,000000	88,106440
1467,000000	88,093443
1466,000000	88,090826
1465,000000	88,108900
1464,000000	88,074262
1463,000000	88,061987
1462,000000	88,056509
1461,000000	88,047682
1460,000000	88,050176
1459,000000	88,065005
1458,000000	88,052712
1457,000000	88,049665
1456,000000	88,039272
1455,000000	88,048307
1454,000000	88,023753
1453,000000	88,024135
1452,000000	88,039762
1451,000000	88,073924
1450,000000	88,049906
1449,000000	88,061175
1448,000000	88,081169
1447,000000	88,099696
1446,000000	88,098197
1445,000000	88,107095
1444,000000	88,109156
1443,000000	88,137479
1442,000000	88,128483
1441,000000	88,126317
1440,000000	88,129742
1439,000000	88,149885
1438,000000	88,169753
1437,000000	88,204434
1436,000000	88,187856
1435,000000	88,210883
1434,000000	88,210171
1433,000000	88,228348
1432,000000	88,235353
1431,000000	88,279708
1430,000000	88,279728
1429,000000	88,317840
1428,000000	88,349860
1427,000000	88,369731
1426,000000	88,393992
1425,000000	88,402705
1424,000000	88,419434
1423,000000	88,450596
1422,000000	88,455870
1421,000000	88,502145
1420,000000	88,527210
1419,000000	88,557903
1418,000000	88,570375
1417,000000	88,473737
1416,000000	88,626224
1415,000000	88,645992
1414,000000	88,678327
1413,000000	88,711437
1412,000000	88,554265
1411,000000	88,566289
1410,000000	88,592631
1409,000000	88,806032
1408,000000	88,818307
1407,000000	88,717000
1406,000000	88,884814
1405,000000	88,902935
1404,000000	88,909604
1403,000000	88,820834
1402,000000	88,813607
1401,000000	88,823849
1400,000000	89,012269
1399,000000	89,045936
1398,000000	89,084334
1397,000000	89,127566
1396,000000	89,129371
1395,000000	89,172879
1394,000000	89,172812
1393,000000	89,219205
1392,000000	89,196504
1391,000000	89,203921
1390,000000	89,229758
1389,000000	89,228578
1388,000000	89,228027
1387,000000	89,273210
1386,000000	89,280522
1385,000000	89,300221
1384,000000	89,340202
1383,000000	89,366737
1382,000000	89,381163
1381,000000	89,415922
1380,000000	89,420658
1379,000000	89,451368
1378,000000	89,298552
1377,000000	89,314739
1376,000000	89,474978
1375,000000	89,500939
1374,000000	89,478193
1373,000000	89,488736
1372,000000	89,453329
1371,000000	89,486632
1370,000000	89,460221
1369,000000	89,504373
1368,000000	89,479040
1367,000000	89,483646
1366,000000	89,480263
1365,000000	89,487918
1364,000000	89,462227
1363,000000	89,456969
1362,000000	89,439676
1361,000000	89,418895
1360,000000	89,394735
1359,000000	89,392662
1358,000000	89,370861
1357,000000	89,370072
1356,000000	89,325216
1355,000000	89,345902
1354,000000	89,338412
1353,000000	89,344815
1352,000000	89,309854
1351,000000	89,328827
1350,000000	89,422425
1349,000000	89,265935
1348,000000	89,252567
1347,000000	89,222290
1346,000000	89,223956
1345,000000	89,313456
1344,000000	89,203738
1343,000000	89,191973
1342,000000	89,131102
1341,000000	89,132663
1340,000000	89,196625
1339,000000	89,095837
1338,000000	89,083861
1337,000000	89,057762
1336,000000	89,018232
1335,000000	89,001118
1334,000000	88,965868
1333,000000	88,941851
1332,000000	88,897204
1331,000000	88,887995
1330,000000	88,875628
1329,000000	88,911333
1328,000000	88,871849
1327,000000	88,848159
1326,000000	88,806738
1325,000000	88,761185
1324,000000	88,716758
1323,000000	88,668090
1322,000000	88,573869
1321,000000	88,531228
1320,000000	88,500480
1319,000000	88,435014
1318,000000	88,390286
1317,000000	88,363868
1316,000000	88,308892
1315,000000	88,252986
1314,000000	88,196206
1313,000000	88,145824
1312,000000	88,103215
1311,000000	88,073038
1310,000000	88,020207
1309,000000	87,990580
1308,000000	87,942573
1307,000000	87,910773
1306,000000	87,873300
1305,000000	87,818358
1304,000000	87,766513
1303,000000	87,743017
1302,000000	87,695313
1301,000000	87,654753
1300,000000	87,615523
1299,000000	87,598135
1298,000000	87,594460
1297,000000	87,604282
1296,000000	87,536697
1295,000000	87,451702
1294,000000	87,422457
1293,000000	87,427213
1292,000000	87,412261
1291,000000	87,311618
1290,000000	87,288468
1289,000000	87,254019
1288,000000	87,226987
1287,000000	87,252810
1286,000000	87,258269
1285,000000	87,150422
1284,000000	87,126038
1283,000000	87,104050
1282,000000	87,085480
1281,000000	87,073219
1280,000000	87,058144
1279,000000	87,038142
1278,000000	87,030291
1277,000000	87,019227
1276,000000	86,979565
1275,000000	86,976091
1274,000000	86,974652
1273,000000	86,963793
1272,000000	86,960363
1271,000000	86,952297
1270,000000	86,946662
1269,000000	86,935885
1268,000000	86,900294
1267,000000	86,900408
1266,000000	86,903774
1265,000000	86,917059
1264,000000	86,968173
1263,000000	87,025485
1262,000000	87,018139
1261,000000	87,021351
1260,000000	87,026153
1259,000000	87,035187
1258,000000	87,039433
1257,000000	87,040628
1256,000000	87,052054
1255,000000	87,042687
1254,000000	87,011381
1253,000000	87,021002
1252,000000	87,048439
1251,000000	87,076972
1250,000000	87,096488
1249,000000	87,111204
1248,000000	87,176000
1247,000000	87,209101
1246,000000	87,181760
1245,000000	87,196294
1244,000000	87,236302
1243,000000	87,283441
1242,000000	87,303936
1241,000000	87,330209
1240,000000	87,358121
1239,000000	87,398810
1238,000000	87,439510
1237,000000	87,476930
1236,000000	87,517574
1235,000000	87,549008
1234,000000	87,594152
1233,000000	87,628384
1232,000000	87,654461
1231,000000	87,692066
1230,000000	87,729204
1229,000000	87,791022
1228,000000	87,813779
1227,000000	87,826295
1226,000000	87,868498
1225,000000	87,909312
1224,000000	87,942367
1223,000000	87,970090
1222,000000	88,008744
1221,000000	88,104960
1220,000000	88,181309
1219,000000	88,217431
1218,000000	88,251181
1217,000000	88,303220
1216,000000	88,347681
1215,000000	88,358417
1214,000000	88,326173
1213,000000	88,305661
1212,000000	88,342918
1211,000000	88,373854
1210,000000	88,413841
1209,000000	88,434227
1208,000000	88,449633
1207,000000	88,468851
1206,000000	88,473486
1205,000000	88,537102
1204,000000	88,535278
1203,000000	88,490376
1202,000000	88,512175
1201,000000	88,534445
1200,000000	88,542470
1199,000000	88,610092
1198,000000	88,602140
1197,000000	88,579397
1196,000000	88,590362
1195,000000	88,590764
1194,000000	88,596529
1193,000000	88,594854
1192,000000	88,607771
1191,000000	88,604727
1190,000000	88,563897
1189,000000	88,532448
1188,000000	88,526365
1187,000000	88,502396
1186,000000	88,493322
1185,000000	88,483385
1184,000000	88,473350
1183,000000	88,457669
1182,000000	88,422038
1181,000000	88,383698
1180,000000	88,362580
1179,000000	88,334047
1178,000000	88,309331
1177,000000	88,260012
1176,000000	88,228163
1175,000000	88,183665
1174,000000	88,160259
1173,000000	88,109350
1172,000000	88,065953
1171,000000	88,014968
1170,000000	87,977672
1169,000000	87,952697
1168,000000	87,895141
1167,000000	87,855405
1166,000000	87,860002
1165,000000	87,827798
1164,000000	87,789950
1163,000000	87,729757
1162,000000	87,679751
1161,000000	87,571504
1160,000000	87,508516
1159,000000	87,447754
1158,000000	87,410071
1157,000000	87,341779
1156,000000	87,283250
1155,000000	87,299758
1154,000000	87,273359
1153,000000	87,239062
1152,000000	87,193942
1151,000000	87,065703
1150,000000	87,003307
1149,000000	86,941792
1148,000000	86,894493
1147,000000	86,822204
1146,000000	86,806319
1145,000000	86,751736
1144,000000	86,779130
1143,000000	86,725445
1142,000000	86,694993
1141,000000	86,677625
1140,000000	86,581460
1139,000000	86,498446
1138,000000	86,465173
1137,000000	86,441329
1136,000000	86,402100
1135,000000	86,379415
1134,000000	86,362121
1133,000000	86,393893
1132,000000	86,405426
1131,000000	86,392383
1130,000000	86,309169
1129,000000	86,273611
1128,000000	86,262619
1127,000000	86,235351
1126,000000	86,222192
1125,000000	86,201266
1124,000000	86,193609
1123,000000	86,172887
1122,000000	86,165833
1121,000000	86,158344
1120,000000	86,271979
1119,000000	86,272321
1118,000000	86,283096
1117,000000	86,275338
1116,000000	86,276920
1115,000000	86,281171
1114,000000	86,312803
1113,000000	86,271009
1112,000000	86,300314
1111,000000	86,282928
1110,000000	86,324426
1109,000000	86,358794
1108,000000	86,374816
1107,000000	86,364959
1106,000000	86,405189
1105,000000	86,436044
1104,000000	86,501743
1103,000000	86,499441
1102,000000	86,549532
1101,000000	86,582585
1100,000000	86,631490
1099,000000	86,656822
1098,000000	86,695360
1097,000000	86,696809
1096,000000	86,759171
1095,000000	86,787986
1094,000000	86,857850
1093,000000	86,876423
1092,000000	86,921793
1091,000000	87,070673
1090,000000	87,103122
1089,000000	87,149676
1088,000000	87,107721
1087,000000	87,115593
1086,000000	87,174068
1085,000000	87,227828
1084,000000	87,265594
1083,000000	87,412806
1082,000000	87,452818
1081,000000	87,347783
1080,000000	87,369098
1079,000000	87,397595
1078,000000	87,429992
1077,000000	87,447552
1076,000000	87,550317
1075,000000	87,496490
1074,000000	87,534640
1073,000000	87,575537
1072,000000	87,606405
1071,000000	87,617642
1070,000000	87,632218
1069,000000	87,712695
1068,000000	87,654895
1067,000000	87,646748
1066,000000	87,657442
1065,000000	87,640819
1064,000000	87,667228
1063,000000	87,671224
1062,000000	87,758101
1061,000000	87,744852
1060,000000	87,644976
1059,000000	87,628298
1058,000000	87,616976
1057,000000	87,588715
1056,000000	87,558477
1055,000000	87,634207
1054,000000	87,513268
1053,000000	87,485640
1052,000000	87,472539
1051,000000	87,425692
1050,000000	87,456986
1049,000000	87,334990
1048,000000	87,276210
1047,000000	87,247036
1046,000000	87,218927
1045,000000	87,238783
1044,000000	87,104692
1043,000000	87,050615
1042,000000	87,019932
1041,000000	86,956411
1040,000000	86,901131
1039,000000	86,834951
1038,000000	86,787596
1037,000000	86,732283
1036,000000	86,777227
1035,000000	86,621098
1034,000000	86,572640
1033,000000	86,508744
1032,000000	86,456127
1031,000000	86,386556
1030,000000	86,345341
1029,000000	86,273178
1028,000000	86,216659
1027,000000	86,156610
1026,000000	86,105714
1025,000000	86,054043
1024,000000	86,004455
1023,000000	85,961884
1022,000000	85,918851
1021,000000	85,843134
1020,000000	85,834831
1019,000000	85,794003
1018,000000	85,750440
1017,000000	85,730113
1016,000000	85,721570
1015,000000	85,675029
1014,000000	85,635137
1013,000000	85,606440
1012,000000	85,579477
1011,000000	85,533024
1010,000000	85,552927
1009,000000	85,505128
1008,000000	85,425039
1007,000000	85,578331
1006,000000	85,630867
1005,000000	85,525010
1004,000000	85,529543
1003,000000	85,492695
1002,000000	85,445909
1001,000000	85,549458
1000,000000	85,572125
999,000000	85,584974
998,000000	85,557478
997,000000	85,524017
996,000000	85,709888
995,000000	85,810547
994,000000	85,667011
993,000000	85,569610
992,000000	85,670511
991,000000	85,820918
990,000000	85,804513
989,000000	85,732823
988,000000	85,833397
987,000000	85,974985
986,000000	86,022240
985,000000	85,984092
984,000000	85,895691
983,000000	85,993659
982,000000	86,175344
981,000000	86,226027
980,000000	86,212203
979,000000	86,146746
978,000000	86,250719
977,000000	86,410680
976,000000	86,476699
975,000000	86,454769
974,000000	86,379527
973,000000	86,428916
972,000000	86,558533
971,000000	86,656520
970,000000	86,659490
969,000000	86,790591
968,000000	86,885016
967,000000	86,957592
966,000000	87,087342
965,000000	87,150221
964,000000	87,182204
963,000000	87,188797
962,000000	87,190920
961,000000	87,194339
960,000000	87,186617
959,000000	87,169879
958,000000	87,182066
957,000000	87,175199
956,000000	87,154169
955,000000	87,117309
954,000000	87,090193
953,000000	87,065654
952,000000	87,050168
951,000000	87,024581
950,000000	87,002439
949,000000	86,966792
948,000000	86,924548
947,000000	86,880071
946,000000	86,837575
945,000000	86,785900
944,000000	86,733460
943,000000	86,688281
942,000000	86,645791
941,000000	86,595667
940,000000	86,551659
939,000000	86,491113
938,000000	86,425497
937,000000	86,370496
936,000000	86,338198
935,000000	86,288792
934,000000	86,226320
933,000000	86,175778
932,000000	86,114291
931,000000	86,050026
930,000000	86,010339
929,000000	85,978635
928,000000	85,936730
927,000000	85,910795
926,000000	85,882284
925,000000	85,834770
924,000000	85,792787
923,000000	85,770595
922,000000	85,748129
921,000000	85,749302
920,000000	85,726616
919,000000	85,685875
918,000000	85,668687
917,000000	85,657727
916,000000	85,648034
915,000000	85,643160
914,000000	85,636579
913,000000	85,657958
912,000000	85,638984
911,000000	85,644945
910,000000	85,635461
909,000000	85,631125
908,000000	85,664940
907,000000	85,730223
906,000000	85,755096
905,000000	85,774145
904,000000	85,803856
903,000000	85,839522
902,000000	85,875766
901,000000	85,892755
900,000000	85,925162
899,000000	85,999274
898,000000	86,034915
897,000000	86,092045
896,000000	86,126612
895,000000	86,171439
894,000000	86,195282
893,000000	86,245273
892,000000	86,232270
891,000000	86,289945
890,000000	86,345385
889,000000	86,422371
888,000000	86,404939
887,000000	86,416648
886,000000	86,442286
885,000000	86,493057
884,000000	86,517519
883,000000	86,547927
882,000000	86,561462
881,000000	86,580433
880,000000	86,561437
879,000000	86,565656
878,000000	86,534589
877,000000	86,612409
876,000000	86,572875
875,000000	86,585833
874,000000	86,543804
873,000000	86,553478
872,000000	86,514613
871,000000	86,499278
870,000000	86,466928
869,000000	86,461072
868,000000	86,371585
867,000000	86,397284
866,000000	86,279391
865,000000	86,255156
864,000000	86,240664
863,000000	86,194453
862,000000	86,162415
861,000000	85,499523
860,000000	85,581916
859,000000	85,749094
858,000000	85,785386
857,000000	85,596085
856,000000	85,428255
855,000000	86,035540
854,000000	86,082375
853,000000	86,150940
852,000000	85,744734
851,000000	85,918803
850,000000	85,575451
849,000000	85,684071
848,000000	85,113887
847,000000	85,487003
846,000000	85,458509
845,000000	85,906733
844,000000	85,532596
843,000000	85,185901
842,000000	85,407249
841,000000	85,486843
840,000000	85,500318
839,000000	85,441167
838,000000	85,293517
837,000000	85,441492
836,000000	85,344583
835,000000	85,311601
834,000000	85,458742
833,000000	85,613126
832,000000	85,709308
831,000000	85,592849
830,000000	85,759163
829,000000	85,559140
828,000000	85,764441
827,000000	85,802235
826,000000	85,599763
825,000000	85,906676
824,000000	86,015525
823,000000	85,775180
822,000000	85,895855
821,000000	85,847021
820,000000	85,966426
819,000000	86,010482
818,000000	86,014273
817,000000	86,237526
816,000000	86,438875
815,000000	86,249962
814,000000	86,299437
813,000000	86,597571
812,000000	86,506320
811,000000	86,473913
810,000000	86,270556
809,000000	86,590886
808,000000	86,558417
807,000000	86,435442
806,000000	86,114223
805,000000	86,204809
804,000000	86,327929
803,000000	86,220903
802,000000	86,153725
801,000000	86,214822
800,000000	86,218230
799,000000	86,147721
798,000000	86,162937
797,000000	85,962843
796,000000	85,872330
795,000000	86,056678
794,000000	85,925698
793,000000	85,917207
792,000000	85,767407
791,000000	85,634940
790,000000	85,474353
789,000000	85,509571
788,000000	85,350198
787,000000	85,321776
786,000000	85,358897
785,000000	85,324157
784,000000	85,287834
783,000000	85,208971
782,000000	85,284279
781,000000	85,099042
780,000000	85,243405
779,000000	85,107140
778,000000	85,376011
777,000000	85,204415
776,000000	85,177310
775,000000	85,057442
774,000000	85,308529
773,000000	85,235418
772,000000	85,326231
771,000000	85,244904
770,000000	85,314723
769,000000	85,447953
768,000000	85,423002
767,000000	85,563762
766,000000	85,404822
765,000000	85,700095
764,000000	85,595260
763,000000	85,636737
762,000000	85,700958
761,000000	85,865360
760,000000	85,766868
759,000000	85,828319
758,000000	85,886603
757,000000	85,951499
756,000000	86,016495
755,000000	85,933181
754,000000	86,190214
753,000000	86,206338
752,000000	86,028800
751,000000	85,980454
750,000000	85,960211
749,000000	86,045587
748,000000	85,984840
747,000000	85,939517
746,000000	85,966989
745,000000	85,954693
744,000000	85,848946
743,000000	85,889077
742,000000	85,803101
741,000000	85,667718
740,000000	85,692835
739,000000	85,464627
738,000000	85,471899
737,000000	85,398448
736,000000	85,500719
735,000000	85,348428
734,000000	85,203906
733,000000	85,190344
732,000000	85,201317
731,000000	85,051538
730,000000	84,935617
729,000000	84,961515
728,000000	84,884559
727,000000	84,784535
726,000000	84,833860
725,000000	84,845612
724,000000	84,777744
723,000000	84,825543
722,000000	84,805333
721,000000	84,733909
720,000000	84,696960
719,000000	84,874058
718,000000	84,918227
717,000000	85,000905
716,000000	84,978471
715,000000	85,037833
714,000000	85,051741
713,000000	85,149336
712,000000	85,200201
711,000000	85,309971
710,000000	85,339215
709,000000	85,442577
708,000000	85,403601
707,000000	85,365171
706,000000	85,431073
705,000000	85,508276
704,000000	85,517059
703,000000	85,702430
702,000000	85,582530
701,000000	85,608158
700,000000	85,607338
699,000000	85,625140
698,000000	85,732244
697,000000	85,588780
696,000000	85,521185
695,000000	85,528768
694,000000	85,421531
693,000000	85,453753
692,000000	85,316345
691,000000	85,264552
690,000000	85,159785
689,000000	85,104733
688,000000	84,966362
687,000000	84,924773
686,000000	84,857670
685,000000	84,738806
684,000000	84,660470
683,000000	84,615072
682,000000	84,542759
681,000000	84,466855
680,000000	84,427410
679,000000	84,426916
678,000000	84,434886
677,000000	84,365176
676,000000	84,307245
675,000000	84,280759
674,000000	84,333185
673,000000	84,423941
672,000000	84,447621
671,000000	84,473277
670,000000	84,573941
669,000000	84,682896
668,000000	84,646345
667,000000	84,647602
666,000000	84,668630
665,000000	84,775318
664,000000	84,829749
663,000000	84,929236
662,000000	84,971111
661,000000	84,902018
660,000000	84,924156
659,000000	85,018237
658,000000	84,990973
657,000000	84,972032
656,000000	85,006994
655,000000	84,938220
654,000000	84,937662
653,000000	84,938551
652,000000	84,890881
651,000000	84,842640
650,000000	84,757757
649,000000	84,715649
648,000000	84,663506
647,000000	84,581133
646,000000	84,492835
645,000000	84,491619
644,000000	84,455865
643,000000	84,379725
642,000000	84,317303
641,000000	84,209112
640,000000	84,158178
639,000000	84,163413
638,000000	84,154968
637,000000	84,127329
636,000000	84,121969
635,000000	84,129723
634,000000	84,134343
633,000000	84,125200
632,000000	84,125719
631,000000	84,174548
630,000000	84,251211
629,000000	84,284874
628,000000	84,292581
627,000000	84,327445
626,000000	84,445445
625,000000	84,504634
624,000000	84,525081
623,000000	84,512126
622,000000	84,497578
621,000000	84,547028
620,000000	84,510612
619,000000	84,462026
618,000000	84,470738
617,000000	84,471007
616,000000	84,466506
615,000000	84,342091
614,000000	84,264174
613,000000	84,206991
612,000000	84,175845
611,000000	84,121308
610,000000	84,069856
609,000000	84,005105
608,000000	83,953293
607,000000	83,888650
606,000000	83,848161
605,000000	83,859861
604,000000	83,822956
603,000000	83,823071
602,000000	83,821523
601,000000	83,815175
600,000000	83,836670
599,000000	83,831525
598,000000	83,854385
597,000000	83,920849
596,000000	83,911065
595,000000	83,976465
594,000000	84,008894
593,000000	84,021596
592,000000	84,082427
591,000000	84,099350
590,000000	84,155055
589,000000	84,189836
588,000000	84,135515
587,000000	84,132525
586,000000	84,092091
585,000000	84,060683
584,000000	84,012944
583,000000	83,916186
582,000000	83,878792
581,000000	83,856325
580,000000	83,820925
579,000000	83,696907
578,000000	83,615937
577,000000	83,582149
576,000000	83,580153
575,000000	83,554429
574,000000	83,500387
573,000000	83,480478
572,000000	83,463978
571,000000	83,477792
570,000000	83,462209
569,000000	83,463429
568,000000	83,541537
567,000000	83,582091
566,000000	83,636592
565,000000	83,701588
564,000000	83,728858
563,000000	83,753933
562,000000	83,800553
561,000000	83,901596
560,000000	83,982097
559,000000	84,015604
558,000000	83,922300
557,000000	83,955585
556,000000	83,921801
555,000000	83,889030
554,000000	83,856056
553,000000	83,821263
552,000000	83,741990
551,000000	83,620241
550,000000	83,594180
549,000000	83,499262
548,000000	83,471723
547,000000	83,381294
546,000000	83,402107
545,000000	83,377105
544,000000	83,378440
543,000000	83,328297
542,000000	83,317071
541,000000	83,396523
540,000000	83,429745
539,000000	83,484569
538,000000	83,513871
537,000000	83,567315
536,000000	83,595420
535,000000	83,656439
534,000000	83,623284
533,000000	83,634776
532,000000	83,658053
531,000000	83,595515
530,000000	83,546750
529,000000	83,510123
528,000000	83,441750
527,000000	83,388639
526,000000	83,263185
525,000000	83,207829
524,000000	83,163791
523,000000	83,135624
522,000000	83,022435
521,000000	83,011132
520,000000	82,985519
519,000000	82,981499
518,000000	82,964346
517,000000	83,001401
516,000000	82,976535
515,000000	82,947044
514,000000	82,967232
513,000000	82,920303
512,000000	82,922608
511,000000	82,922742
510,000000	82,901148
509,000000	82,786632
508,000000	82,794059
507,000000	82,655688
506,000000	82,620567
505,000000	82,523839
504,000000	82,464328
503,000000	82,449898
502,000000	82,330780
501,000000	82,395916
500,000000	82,416168
499,000000	82,399225
498,000000	82,401290
497,000000	82,375335
496,000000	82,538305
495,000000	82,494912
494,000000	82,432201
493,000000	82,608519
492,000000	82,644522
491,000000	82,634021
490,000000	82,656179
489,000000	82,585047
488,000000	82,566754
487,000000	82,467546
486,000000	82,439043
485,000000	82,374097
484,000000	82,323845
483,000000	82,421037
482,000000	82,387569
481,000000	82,263142
480,000000	82,233090
479,000000	82,156812
478,000000	82,170506
477,000000	82,106700
476,000000	82,035121
475,000000	82,044380
474,000000	81,960209
473,000000	81,894738
472,000000	81,849628
471,000000	81,714330
470,000000	81,644842
469,000000	81,498428
468,000000	81,392255
467,000000	81,258771
466,000000	81,214952
465,000000	81,128350
464,000000	81,038372
463,000000	81,000146
462,000000	80,972391
461,000000	80,960482
460,000000	80,917082
459,000000	80,852348
458,000000	80,808736
457,000000	80,809722
456,000000	80,786973
455,000000	80,647994
454,000000	80,481627
453,000000	80,439437
452,000000	80,300842
451,000000	80,152860
450,000000	80,174736
449,000000	80,070060
448,000000	80,024248
447,000000	79,900597
446,000000	79,978011
445,000000	79,928364
444,000000	79,958091
443,000000	79,836582
442,000000	79,715366
441,000000	79,440499
440,000000	79,303550
439,000000	79,119847
438,000000	78,894926
437,000000	78,739889
436,000000	78,627438
435,000000	78,534521
434,000000	78,399272
433,000000	78,281994
432,000000	78,106376
431,000000	77,743150
430,000000	77,346335
429,000000	77,048453
428,000000	76,513699
427,000000	75,964852
426,000000	75,418117
425,000000	74,732346
424,000000	73,916835
423,000000	73,015292
422,000000	71,990880
421,000000	70,724361
420,000000	69,368707
419,000000	67,962294
418,000000	66,614941
417,000000	65,208852
416,000000	63,881778
415,000000	62,645918
414,000000	61,661353
413,000000	60,721953
412,000000	59,916281
411,000000	59,340098
410,000000	58,939224
409,000000	58,591260
408,000000	58,428586
407,000000	58,375948
406,000000	58,322819
405,000000	58,389946
404,000000	58,505023
403,000000	58,685494
402,000000	58,903955
401,000000	59,042567
400,000000	59,263837
399,000000	59,524186
398,000000	59,702616
397,000000	60,003645
396,000000	60,200511
395,000000	60,404280
394,000000	60,605841
393,000000	60,792999
392,000000	60,934325
391,000000	61,176462
390,000000	61,316319
389,000000	61,441251
388,000000	61,646424
387,000000	61,852267
386,000000	61,979268
385,000000	62,189096
384,000000	62,359922
383,000000	62,557482
382,000000	62,747359
381,000000	62,952765
380,000000	63,242483
379,000000	63,424978
378,000000	63,475595
377,000000	63,916480
376,000000	64,106235
375,000000	64,947083
374,000000	66,000337
373,000000	66,477514
372,000000	67,004160
371,000000	68,029081
370,000000	68,476400
369,000000	69,216749
368,000000	70,254341
367,000000	71,403875
366,000000	72,337113
365,000000	73,036618
364,000000	74,082036
363,000000	74,775548
362,000000	74,870622
361,000000	75,373801
360,000000	76,557626
359,000000	77,093225
358,000000	77,307272
357,000000	77,716230
356,000000	78,114595
355,000000	78,805704
354,000000	79,472103
353,000000	80,050745
352,000000	80,659625
351,000000	80,909399
350,000000	81,377405
349,000000	81,850260
348,000000	82,200448
347,000000	82,752929
346,000000	83,375457
345,000000	83,834379
344,000000	83,637697
343,000000	83,517809
342,000000	83,559824
341,000000	83,649036
340,000000	83,804823
339,000000	84,305069
338,000000	84,147768
337,000000	83,826285
336,000000	83,423402
335,000000	83,129989
334,000000	83,463031
333,000000	83,169075
332,000000	82,341770
331,000000	82,146008
330,000000	82,289004
329,000000	82,146548
328,000000	82,004074
327,000000	82,225444
326,000000	82,283864
325,000000	81,491907
324,000000	80,938508
323,000000	81,012297
322,000000	81,070926
321,000000	81,278439
320,000000	81,355994
319,000000	81,544345
318,000000	81,797994
317,000000	81,909715
316,000000	81,750602
315,000000	81,717248
314,000000	81,877327
313,000000	81,864034
312,000000	81,791066
311,000000	81,757361
310,000000	81,864865
309,000000	82,277469
308,000000	82,768795
307,000000	83,264032
306,000000	83,900667
305,000000	84,793284
304,000000	85,379743
303,000000	85,783475
302,000000	86,184363
301,000000	86,493467
300,000000	86,886674
299,000000	87,244825
298,000000	87,655310
297,000000	88,367228
296,000000	89,109479
295,000000	89,579134
294,000000	90,032198
293,000000	90,751159
292,000000	91,787285
291,000000	92,644996
290,000000	93,525032
289,000000	94,405125
288,000000	95,238084
287,000000	96,213175
286,000000	97,098088
285,000000	98,071813
284,000000	98,674435
283,000000	99,199234
282,000000	99,705085
281,000000	100,283703
280,000000	100,720586
279,000000	101,333546
278,000000	101,799689
277,000000	102,169018
276,000000	102,387726
275,000000	102,561606
274,000000	102,956777
273,000000	103,169737
272,000000	103,188567
271,000000	103,280299
270,000000	103,393679
269,000000	103,573560
268,000000	103,556143
267,000000	103,710005
266,000000	104,093756
265,000000	104,367822
264,000000	104,940959
263,000000	105,602967
262,000000	106,103586
261,000000	106,844968
260,000000	107,794444
259,000000	108,554945
258,000000	109,372404
257,000000	110,362344
256,000000	111,846277
255,000000	113,295665
254,000000	114,436661
253,000000	115,896250
252,000000	117,512468
251,000000	119,468025
250,000000	121,354640
249,000000	123,017906
248,000000	124,391794
247,000000	125,685125
246,000000	127,147035
245,000000	128,847315
244,000000	130,779063
243,000000	132,853093
242,000000	135,208606
241,000000	137,464800
240,000000	139,447431
239,000000	141,654943
238,000000	144,194651
237,000000	147,253389
236,000000	150,281739
235,000000	155,003584
234,000000	159,274344
233,000000	162,875470
232,000000	166,000876
231,000000	169,313982
230,000000	172,394516
229,000000	175,853671
228,000000	179,025576
227,000000	182,347600
226,000000	186,044773
225,000000	189,377568
224,000000	192,204618
223,000000	195,659939
222,000000	198,647508
221,000000	201,568950
220,000000	204,019252
219,000000	207,101479
218,000000	209,907166
217,000000	212,917890
216,000000	215,373894
215,000000	218,436175
214,000000	221,260803
213,000000	224,698663
212,000000	228,768101
211,000000	233,717907
210,000000	238,492228
209,000000	245,363105
208,000000	251,397784
207,000000	257,975030
206,000000	266,591806
205,000000	276,812959
204,000000	285,909964
203,000000	297,703807
202,000000	309,792041
201,000000	323,306098
200,000000	336,593158
