PE UV       SUBTECH     SPECTRUM    ASCII       PEDS        4.00        
   -1
sampleA_T+V.Sample.asc
22/01/26
15:44:58.00
22/01/26
15:44:58.00
Administrator

200,000000
1
Lambda 1050
1050L1808311
PerkinElmer UV WinLab 6.4.0.973 / 2.02.11 Lambda 900 UV/VIS/NIR, May 23 2018 11:23:04

0
0
3350/servo 860,8/2
0
0
UV/VIS
1
1
1
CommonBeamDepol,RBeamAtt,SBeamAtt,60mm sphere
0
0
0
0
Program
Program
3350/servo 860,8/2
3350/0,2 860,8/0,2
3350/0,2 860,8/0,2
0
1
 
 
 
0
 
860,8
319,2
860,8
Front
100
on
S:100 R:100
 
0
0
0
 
0
 
 
 
0
 
 
0
0
0
0
0
 
 
 
 
0
0


0
0
#HDR
-1
-1
#GR
nm
%T
1.0
0.0
2000,000000
-1,000000
1801
8
304,499368
52,536062
#DATA
2000,000000	81,708244
1999,000000	81,777501
1998,000000	81,728277
1997,000000	81,732481
1996,000000	81,657231
1995,000000	81,662084
1994,000000	81,640174
1993,000000	81,671595
1992,000000	81,605142
1991,000000	81,609464
1990,000000	81,592197
1989,000000	81,594894
1988,000000	81,623567
1987,000000	81,598954
1986,000000	81,540937
1985,000000	81,529076
1984,000000	81,510786
1983,000000	81,545595
1982,000000	81,430795
1981,000000	81,537143
1980,000000	81,581423
1979,000000	81,702406
1978,000000	81,562416
1977,000000	81,580081
1976,000000	81,525997
1975,000000	81,444776
1974,000000	81,352317
1973,000000	81,394568
1972,000000	81,326690
1971,000000	81,333977
1970,000000	81,307523
1969,000000	81,327073
1968,000000	81,302234
1967,000000	81,284053
1966,000000	81,262484
1965,000000	81,241835
1964,000000	81,276216
1963,000000	81,266647
1962,000000	81,227809
1961,000000	81,203339
1960,000000	81,160529
1959,000000	81,190780
1958,000000	81,151382
1957,000000	81,156736
1956,000000	81,123968
1955,000000	81,156903
1954,000000	81,080482
1953,000000	81,084564
1952,000000	81,032260
1951,000000	81,051421
1950,000000	81,035922
1949,000000	81,044470
1948,000000	80,996050
1947,000000	81,012273
1946,000000	80,947203
1945,000000	80,984075
1944,000000	80,932288
1943,000000	80,971489
1942,000000	80,933989
1941,000000	80,910715
1940,000000	80,908058
1939,000000	80,908611
1938,000000	80,889255
1937,000000	80,875589
1936,000000	80,859145
1935,000000	80,862951
1934,000000	80,860519
1933,000000	80,831349
1932,000000	80,811560
1931,000000	80,804889
1930,000000	80,732067
1929,000000	80,715460
1928,000000	80,671682
1927,000000	80,657869
1926,000000	80,640659
1925,000000	80,696383
1924,000000	80,713011
1923,000000	80,656066
1922,000000	80,586415
1921,000000	80,604561
1920,000000	80,591803
1919,000000	80,541550
1918,000000	80,527085
1917,000000	80,577545
1916,000000	80,523535
1915,000000	80,523057
1914,000000	80,494900
1913,000000	80,491595
1912,000000	80,465568
1911,000000	80,501410
1910,000000	80,519536
1909,000000	80,537933
1908,000000	80,568143
1907,000000	80,599981
1906,000000	80,559068
1905,000000	80,510302
1904,000000	80,441937
1903,000000	80,454461
1902,000000	80,436634
1901,000000	80,408441
1900,000000	80,299884
1899,000000	80,248610
1898,000000	80,226328
1897,000000	80,252099
1896,000000	80,228230
1895,000000	80,227062
1894,000000	80,256504
1893,000000	80,224385
1892,000000	80,144349
1891,000000	80,101404
1890,000000	80,090548
1889,000000	80,075640
1888,000000	80,051149
1887,000000	80,089083
1886,000000	80,106526
1885,000000	80,068833
1884,000000	80,018554
1883,000000	80,000479
1882,000000	80,025977
1881,000000	79,991555
1880,000000	79,949460
1879,000000	79,918974
1878,000000	79,905403
1877,000000	79,882699
1876,000000	79,854094
1875,000000	79,865729
1874,000000	79,811710
1873,000000	79,783849
1872,000000	79,759069
1871,000000	79,775371
1870,000000	79,778183
1869,000000	79,786134
1868,000000	79,741023
1867,000000	79,742716
1866,000000	79,794829
1865,000000	79,794999
1864,000000	79,805420
1863,000000	79,802685
1862,000000	79,758911
1861,000000	79,759827
1860,000000	79,763795
1859,000000	79,778888
1858,000000	79,768127
1857,000000	79,731250
1856,000000	79,734162
1855,000000	79,736624
1854,000000	79,736202
1853,000000	79,699961
1852,000000	79,684385
1851,000000	79,683926
1850,000000	79,685451
1849,000000	79,702840
1848,000000	79,696556
1847,000000	79,682592
1846,000000	79,666089
1845,000000	79,649326
1844,000000	79,640642
1843,000000	79,640862
1842,000000	79,638033
1841,000000	79,610803
1840,000000	79,619439
1839,000000	79,632804
1838,000000	79,609134
1837,000000	79,569944
1836,000000	79,580692
1835,000000	79,575201
1834,000000	79,581598
1833,000000	79,589613
1832,000000	79,601647
1831,000000	79,606179
1830,000000	79,605452
1829,000000	79,603584
1828,000000	79,600054
1827,000000	79,578661
1826,000000	79,555571
1825,000000	79,574794
1824,000000	79,618203
1823,000000	79,621168
1822,000000	79,602667
1821,000000	79,482491
1820,000000	79,404674
1819,000000	79,377460
1818,000000	79,387905
1817,000000	79,388600
1816,000000	79,383935
1815,000000	79,390199
1814,000000	79,409748
1813,000000	79,400853
1812,000000	79,399168
1811,000000	79,399349
1810,000000	79,416006
1809,000000	79,410161
1808,000000	79,420023
1807,000000	79,414218
1806,000000	79,433819
1805,000000	79,425355
1804,000000	79,439171
1803,000000	79,446352
1802,000000	79,455964
1801,000000	79,455932
1800,000000	79,468593
1799,000000	79,480164
1798,000000	79,492085
1797,000000	79,486398
1796,000000	79,503534
1795,000000	79,511182
1794,000000	79,522099
1793,000000	79,517594
1792,000000	79,541834
1791,000000	79,557821
1790,000000	79,553864
1789,000000	79,561878
1788,000000	79,588216
1787,000000	79,576962
1786,000000	79,600873
1785,000000	79,604429
1784,000000	79,617503
1783,000000	79,622809
1782,000000	79,633238
1781,000000	79,642042
1780,000000	79,672298
1779,000000	79,687455
1778,000000	79,712109
1777,000000	79,697253
1776,000000	79,734663
1775,000000	79,727621
1774,000000	79,766641
1773,000000	79,760794
1772,000000	79,786076
1771,000000	79,788405
1770,000000	79,819250
1769,000000	79,815283
1768,000000	79,867894
1767,000000	79,868339
1766,000000	79,899732
1765,000000	79,891873
1764,000000	79,933173
1763,000000	79,937937
1762,000000	79,970206
1761,000000	79,973325
1760,000000	80,007364
1759,000000	79,979671
1758,000000	80,034127
1757,000000	80,049521
1756,000000	80,082964
1755,000000	80,065016
1754,000000	80,121033
1753,000000	80,121606
1752,000000	80,166237
1751,000000	80,137042
1750,000000	80,161576
1749,000000	80,149498
1748,000000	80,181700
1747,000000	80,180457
1746,000000	80,205316
1745,000000	80,234796
1744,000000	80,272130
1743,000000	80,255288
1742,000000	80,288213
1741,000000	80,296640
1740,000000	80,290408
1739,000000	80,345956
1738,000000	80,351782
1737,000000	80,348304
1736,000000	80,397297
1735,000000	80,405467
1734,000000	80,403951
1733,000000	80,441780
1732,000000	80,483755
1731,000000	80,476121
1730,000000	80,482664
1729,000000	80,483668
1728,000000	80,528670
1727,000000	80,525269
1726,000000	80,570137
1725,000000	80,548086
1724,000000	80,601833
1723,000000	80,596426
1722,000000	80,660652
1721,000000	80,621053
1720,000000	80,668230
1719,000000	80,654853
1718,000000	80,680309
1717,000000	80,715837
1716,000000	80,728372
1715,000000	80,678246
1714,000000	80,744646
1713,000000	80,720602
1712,000000	80,745108
1711,000000	80,705930
1710,000000	80,772182
1709,000000	80,750727
1708,000000	80,751935
1707,000000	80,748284
1706,000000	80,772102
1705,000000	80,754296
1704,000000	80,797707
1703,000000	80,733885
1702,000000	80,751705
1701,000000	80,741121
1700,000000	80,772262
1699,000000	80,711050
1698,000000	80,772232
1697,000000	80,748491
1696,000000	80,775568
1695,000000	80,740407
1694,000000	80,795441
1693,000000	80,747118
1692,000000	80,713887
1691,000000	80,690859
1690,000000	80,733979
1689,000000	80,722240
1688,000000	80,746133
1687,000000	80,688653
1686,000000	80,742453
1685,000000	80,725968
1684,000000	80,748852
1683,000000	80,719244
1682,000000	80,744783
1681,000000	80,719349
1680,000000	80,729351
1679,000000	80,727961
1678,000000	80,751178
1677,000000	80,737607
1676,000000	80,765442
1675,000000	80,737276
1674,000000	80,755429
1673,000000	80,767010
1672,000000	80,782264
1671,000000	80,774702
1670,000000	80,779651
1669,000000	80,752517
1668,000000	80,797510
1667,000000	80,769125
1666,000000	80,790807
1665,000000	80,790499
1664,000000	80,820611
1663,000000	80,815861
1662,000000	80,839356
1661,000000	80,828100
1660,000000	80,849001
1659,000000	80,805174
1658,000000	80,817198
1657,000000	80,800780
1656,000000	80,789530
1655,000000	80,782228
1654,000000	80,811501
1653,000000	80,795144
1652,000000	80,801136
1651,000000	80,771126
1650,000000	80,764052
1649,000000	80,769437
1648,000000	80,774992
1647,000000	80,732663
1646,000000	80,705885
1645,000000	80,710190
1644,000000	80,685980
1643,000000	80,682440
1642,000000	80,670033
1641,000000	80,670744
1640,000000	80,679985
1639,000000	80,664675
1638,000000	80,650806
1637,000000	80,631261
1636,000000	80,631667
1635,000000	80,609665
1634,000000	80,616123
1633,000000	80,572409
1632,000000	80,580930
1631,000000	80,561195
1630,000000	80,570299
1629,000000	80,530594
1628,000000	80,527824
1627,000000	80,447794
1626,000000	80,289063
1625,000000	80,014708
1624,000000	79,869552
1623,000000	79,827995
1622,000000	79,834090
1621,000000	79,808620
1620,000000	79,788843
1619,000000	79,767966
1618,000000	79,763651
1617,000000	79,748783
1616,000000	79,728778
1615,000000	79,706955
1614,000000	79,706395
1613,000000	79,647821
1612,000000	79,782580
1611,000000	79,880808
1610,000000	79,866836
1609,000000	79,818061
1608,000000	79,798651
1607,000000	79,699146
1606,000000	79,548549
1605,000000	79,543919
1604,000000	79,542976
1603,000000	79,549527
1602,000000	79,646972
1601,000000	79,626382
1600,000000	79,561335
1599,000000	79,404079
1598,000000	79,373812
1597,000000	79,415452
1596,000000	79,531284
1595,000000	79,496115
1594,000000	79,408905
1593,000000	79,270033
1592,000000	79,257151
1591,000000	79,297518
1590,000000	79,411881
1589,000000	79,377742
1588,000000	79,277627
1587,000000	79,124014
1586,000000	79,170244
1585,000000	79,253926
1584,000000	79,238696
1583,000000	79,149185
1582,000000	79,071339
1581,000000	79,160822
1580,000000	79,141943
1579,000000	79,031522
1578,000000	78,979265
1577,000000	79,075566
1576,000000	79,037561
1575,000000	78,922846
1574,000000	78,785635
1573,000000	78,840875
1572,000000	78,934724
1571,000000	78,913472
1570,000000	78,891515
1569,000000	78,871650
1568,000000	78,865742
1567,000000	78,839983
1566,000000	78,732060
1565,000000	78,679955
1564,000000	78,773001
1563,000000	78,745683
1562,000000	78,730887
1561,000000	78,628374
1560,000000	78,588021
1559,000000	78,657003
1558,000000	78,626973
1557,000000	78,617890
1556,000000	78,612702
1555,000000	78,503010
1554,000000	78,390350
1553,000000	78,452398
1552,000000	78,519519
1551,000000	78,499291
1550,000000	78,481091
1549,000000	78,458467
1548,000000	78,440141
1547,000000	78,435723
1546,000000	78,336883
1545,000000	78,225258
1544,000000	78,291437
1543,000000	78,352732
1542,000000	78,340184
1541,000000	78,322227
1540,000000	78,306459
1539,000000	78,308801
1538,000000	78,281148
1537,000000	78,251230
1536,000000	78,223435
1535,000000	78,197814
1534,000000	78,179155
1533,000000	78,167178
1532,000000	78,052565
1531,000000	77,955483
1530,000000	78,040600
1529,000000	78,109804
1528,000000	78,091248
1527,000000	78,064110
1526,000000	78,047359
1525,000000	78,041616
1524,000000	78,037262
1523,000000	78,035571
1522,000000	78,006833
1521,000000	77,891948
1520,000000	77,905670
1519,000000	77,978065
1518,000000	77,966915
1517,000000	77,951695
1516,000000	77,939208
1515,000000	77,935380
1514,000000	77,823765
1513,000000	77,849752
1512,000000	77,905421
1511,000000	77,900210
1510,000000	77,872853
1509,000000	77,882576
1508,000000	77,877097
1507,000000	77,858771
1506,000000	77,849086
1505,000000	77,862859
1504,000000	77,866278
1503,000000	77,742773
1502,000000	77,755254
1501,000000	77,819900
1500,000000	77,833924
1499,000000	77,837899
1498,000000	77,813939
1497,000000	77,701992
1496,000000	77,765321
1495,000000	77,818726
1494,000000	77,816995
1493,000000	77,816157
1492,000000	77,825623
1491,000000	77,827830
1490,000000	77,826617
1489,000000	77,830794
1488,000000	77,828346
1487,000000	77,831407
1486,000000	77,827573
1485,000000	77,836248
1484,000000	77,835397
1483,000000	77,851475
1482,000000	77,847293
1481,000000	77,856806
1480,000000	77,844319
1479,000000	77,859106
1478,000000	77,862315
1477,000000	77,867531
1476,000000	77,845292
1475,000000	77,856969
1474,000000	77,867845
1473,000000	77,879917
1472,000000	77,874125
1471,000000	77,896173
1470,000000	77,889479
1469,000000	77,894416
1468,000000	77,889199
1467,000000	77,903623
1466,000000	77,892339
1465,000000	77,923273
1464,000000	77,903014
1463,000000	77,912691
1462,000000	77,906743
1461,000000	77,914344
1460,000000	77,923265
1459,000000	77,929691
1458,000000	77,925235
1457,000000	77,953686
1456,000000	77,937895
1455,000000	77,956030
1454,000000	77,943430
1453,000000	77,959323
1452,000000	77,971567
1451,000000	77,992071
1450,000000	77,973004
1449,000000	78,098665
1448,000000	78,032980
1447,000000	78,023828
1446,000000	78,025611
1445,000000	78,039602
1444,000000	78,013496
1443,000000	78,040172
1442,000000	78,018873
1441,000000	78,057147
1440,000000	78,049320
1439,000000	78,053713
1438,000000	78,061344
1437,000000	78,073494
1436,000000	78,057369
1435,000000	78,077712
1434,000000	78,064313
1433,000000	78,076125
1432,000000	78,080234
1431,000000	78,085820
1430,000000	78,066412
1429,000000	78,102551
1428,000000	78,107325
1427,000000	78,106373
1426,000000	78,102130
1425,000000	78,095917
1424,000000	78,066729
1423,000000	78,096030
1422,000000	78,085882
1421,000000	78,138408
1420,000000	78,106643
1419,000000	78,132113
1418,000000	78,112778
1417,000000	78,110903
1416,000000	78,104608
1415,000000	78,117570
1414,000000	78,112298
1413,000000	78,120730
1412,000000	77,982488
1411,000000	77,952527
1410,000000	77,933986
1409,000000	78,087824
1408,000000	78,062428
1407,000000	78,052689
1406,000000	78,018330
1405,000000	78,030306
1404,000000	78,007398
1403,000000	77,894573
1402,000000	77,860462
1401,000000	77,838958
1400,000000	77,996066
1399,000000	77,986375
1398,000000	77,968467
1397,000000	78,004530
1396,000000	77,953163
1395,000000	77,966200
1394,000000	77,957176
1393,000000	77,957171
1392,000000	77,913983
1391,000000	77,891908
1390,000000	77,884245
1389,000000	77,856097
1388,000000	77,820928
1387,000000	77,835984
1386,000000	77,811584
1385,000000	77,807770
1384,000000	77,786774
1383,000000	77,792184
1382,000000	77,753111
1381,000000	77,745678
1380,000000	77,728040
1379,000000	77,739903
1378,000000	77,565059
1377,000000	77,537596
1376,000000	77,647712
1375,000000	77,654215
1374,000000	77,635888
1373,000000	77,609023
1372,000000	77,562842
1371,000000	77,561623
1370,000000	77,514124
1369,000000	77,496331
1368,000000	77,462636
1367,000000	77,435825
1366,000000	77,415759
1365,000000	77,405714
1364,000000	77,343603
1363,000000	77,320957
1362,000000	77,270160
1361,000000	77,255737
1360,000000	77,188525
1359,000000	77,174734
1358,000000	77,138743
1357,000000	77,120304
1356,000000	77,072195
1355,000000	77,051038
1354,000000	77,035921
1353,000000	77,023786
1352,000000	76,970231
1351,000000	76,992057
1350,000000	77,041107
1349,000000	76,894846
1348,000000	76,898393
1347,000000	76,878727
1346,000000	76,863452
1345,000000	76,949564
1344,000000	76,837871
1343,000000	76,821343
1342,000000	76,833665
1341,000000	76,714322
1340,000000	76,725873
1339,000000	76,731043
1338,000000	76,699066
1337,000000	76,720271
1336,000000	76,710080
1335,000000	76,608228
1334,000000	76,573353
1333,000000	76,565747
1332,000000	76,524613
1331,000000	76,519455
1330,000000	76,481901
1329,000000	76,533823
1328,000000	76,478576
1327,000000	76,469430
1326,000000	76,451508
1325,000000	76,422712
1324,000000	76,379289
1323,000000	76,346950
1322,000000	76,268874
1321,000000	76,265576
1320,000000	76,258454
1319,000000	76,221995
1318,000000	76,184215
1317,000000	76,154889
1316,000000	76,129434
1315,000000	76,135399
1314,000000	76,045599
1313,000000	76,028945
1312,000000	76,001445
1311,000000	75,977050
1310,000000	75,936412
1309,000000	75,935356
1308,000000	75,902973
1307,000000	75,887384
1306,000000	75,864773
1305,000000	75,843795
1304,000000	75,799137
1303,000000	75,815602
1302,000000	75,764732
1301,000000	75,745424
1300,000000	75,731103
1299,000000	75,736588
1298,000000	75,731806
1297,000000	75,762992
1296,000000	75,727706
1295,000000	75,673497
1294,000000	75,664403
1293,000000	75,690996
1292,000000	75,733165
1291,000000	75,716485
1290,000000	75,638271
1289,000000	75,612357
1288,000000	75,589160
1287,000000	75,616764
1286,000000	75,648695
1285,000000	75,621747
1284,000000	75,555858
1283,000000	75,557106
1282,000000	75,544925
1281,000000	75,549898
1280,000000	75,545931
1279,000000	75,554475
1278,000000	75,540177
1277,000000	75,534794
1276,000000	75,539278
1275,000000	75,556433
1274,000000	75,529658
1273,000000	75,525789
1272,000000	75,525538
1271,000000	75,521166
1270,000000	75,517293
1269,000000	75,526671
1268,000000	75,503738
1267,000000	75,516929
1266,000000	75,556207
1265,000000	75,612276
1264,000000	75,620119
1263,000000	75,624091
1262,000000	75,621732
1261,000000	75,612808
1260,000000	75,598844
1259,000000	75,612741
1258,000000	75,615527
1257,000000	75,614961
1256,000000	75,606145
1255,000000	75,616021
1254,000000	75,624375
1253,000000	75,589154
1252,000000	75,569270
1251,000000	75,590503
1250,000000	75,575114
1249,000000	75,586026
1248,000000	75,648778
1247,000000	75,713113
1246,000000	75,675567
1245,000000	75,642220
1244,000000	75,669643
1243,000000	75,684601
1242,000000	75,695187
1241,000000	75,704610
1240,000000	75,705432
1239,000000	75,726874
1238,000000	75,739350
1237,000000	75,751656
1236,000000	75,766376
1235,000000	75,759465
1234,000000	75,767050
1233,000000	75,786449
1232,000000	75,795827
1231,000000	75,799441
1230,000000	75,839988
1229,000000	75,867374
1228,000000	75,844624
1227,000000	75,827518
1226,000000	75,843512
1225,000000	75,880435
1224,000000	75,893847
1223,000000	75,926625
1222,000000	75,968391
1221,000000	75,964499
1220,000000	75,961078
1219,000000	75,953273
1218,000000	75,953234
1217,000000	75,966781
1216,000000	75,984899
1215,000000	75,962160
1214,000000	75,977501
1213,000000	75,939487
1212,000000	75,907745
1211,000000	75,903919
1210,000000	75,902423
1209,000000	75,938395
1208,000000	75,909886
1207,000000	75,882294
1206,000000	75,885219
1205,000000	75,938290
1204,000000	75,925072
1203,000000	75,873449
1202,000000	75,879938
1201,000000	75,887285
1200,000000	75,884748
1199,000000	75,915065
1198,000000	75,953248
1197,000000	75,900076
1196,000000	75,881267
1195,000000	75,866429
1194,000000	75,846469
1193,000000	75,841579
1192,000000	75,855555
1191,000000	75,845948
1190,000000	75,800456
1189,000000	75,781467
1188,000000	75,777121
1187,000000	75,752823
1186,000000	75,743873
1185,000000	75,726698
1184,000000	75,717344
1183,000000	75,708766
1182,000000	75,692981
1181,000000	75,663474
1180,000000	75,659397
1179,000000	75,632516
1178,000000	75,613726
1177,000000	75,569519
1176,000000	75,564996
1175,000000	75,532659
1174,000000	75,513974
1173,000000	75,483185
1172,000000	75,475306
1171,000000	75,447450
1170,000000	75,434413
1169,000000	75,428926
1168,000000	75,399660
1167,000000	75,360199
1166,000000	75,388602
1165,000000	75,388157
1164,000000	75,370890
1163,000000	75,347356
1162,000000	75,316983
1161,000000	75,240439
1160,000000	75,214479
1159,000000	75,172503
1158,000000	75,172045
1157,000000	75,139916
1156,000000	75,104319
1155,000000	75,091227
1154,000000	75,115540
1153,000000	75,114647
1152,000000	75,103197
1151,000000	75,027180
1150,000000	75,003759
1149,000000	74,953180
1148,000000	74,936375
1147,000000	74,887824
1146,000000	74,901398
1145,000000	74,868166
1144,000000	74,859777
1143,000000	74,853977
1142,000000	74,874602
1141,000000	74,862227
1140,000000	74,766206
1139,000000	74,725385
1138,000000	74,725013
1137,000000	74,708408
1136,000000	74,704660
1135,000000	74,675177
1134,000000	74,667433
1133,000000	74,652038
1132,000000	74,703452
1131,000000	74,693643
1130,000000	74,636044
1129,000000	74,626384
1128,000000	74,608686
1127,000000	74,579863
1126,000000	74,584783
1125,000000	74,579748
1124,000000	74,558625
1123,000000	74,535422
1122,000000	74,545136
1121,000000	74,521919
1120,000000	74,550210
1119,000000	74,543158
1118,000000	74,535859
1117,000000	74,512132
1116,000000	74,520837
1115,000000	74,504505
1114,000000	74,522018
1113,000000	74,513071
1112,000000	74,535104
1111,000000	74,518056
1110,000000	74,509706
1109,000000	74,531159
1108,000000	74,555182
1107,000000	74,534385
1106,000000	74,579042
1105,000000	74,553801
1104,000000	74,575780
1103,000000	74,557947
1102,000000	74,598050
1101,000000	74,571064
1100,000000	74,606411
1099,000000	74,683294
1098,000000	74,721217
1097,000000	74,620998
1096,000000	74,635846
1095,000000	74,629495
1094,000000	74,680361
1093,000000	74,677069
1092,000000	74,688819
1091,000000	74,713348
1090,000000	74,818463
1089,000000	74,810598
1088,000000	74,735723
1087,000000	74,712370
1086,000000	74,781667
1085,000000	74,762447
1084,000000	74,790141
1083,000000	74,905147
1082,000000	74,917520
1081,000000	74,797943
1080,000000	74,831809
1079,000000	74,845227
1078,000000	74,889421
1077,000000	74,873111
1076,000000	74,882235
1075,000000	74,875591
1074,000000	74,912431
1073,000000	74,905936
1072,000000	74,948599
1071,000000	74,941065
1070,000000	74,962361
1069,000000	74,945645
1068,000000	74,982509
1067,000000	74,954087
1066,000000	74,968177
1065,000000	74,986249
1064,000000	75,000911
1063,000000	75,000697
1062,000000	75,031620
1061,000000	75,082059
1060,000000	75,023761
1059,000000	75,013029
1058,000000	75,046491
1057,000000	75,026157
1056,000000	75,044135
1055,000000	75,084090
1054,000000	75,044795
1053,000000	74,997224
1052,000000	75,028342
1051,000000	74,988207
1050,000000	74,977760
1049,000000	74,980449
1048,000000	74,960173
1047,000000	74,962377
1046,000000	74,987834
1045,000000	75,032757
1044,000000	74,957583
1043,000000	74,930520
1042,000000	74,941959
1041,000000	74,912057
1040,000000	74,900940
1039,000000	74,871650
1038,000000	74,881666
1037,000000	74,851372
1036,000000	74,872006
1035,000000	74,824886
1034,000000	74,831990
1033,000000	74,798482
1032,000000	74,778140
1031,000000	74,747514
1030,000000	74,737477
1029,000000	74,683971
1028,000000	74,632135
1027,000000	74,667847
1026,000000	74,655671
1025,000000	74,623233
1024,000000	74,586617
1023,000000	74,575734
1022,000000	74,549128
1021,000000	74,444162
1020,000000	74,525682
1019,000000	74,502331
1018,000000	74,495334
1017,000000	74,480185
1016,000000	74,453486
1015,000000	74,388762
1014,000000	74,306926
1013,000000	74,377741
1012,000000	74,366430
1011,000000	74,332439
1010,000000	74,335411
1009,000000	74,260599
1008,000000	74,179204
1007,000000	74,256713
1006,000000	74,217742
1005,000000	74,142656
1004,000000	74,234113
1003,000000	74,217663
1002,000000	74,216271
1001,000000	74,160403
1000,000000	74,111716
999,000000	74,181703
998,000000	74,133764
997,000000	74,072816
996,000000	74,168510
995,000000	74,148051
994,000000	74,098345
993,000000	73,977566
992,000000	74,043877
991,000000	74,143229
990,000000	74,094269
989,000000	73,972983
988,000000	74,037071
987,000000	74,132844
986,000000	74,139563
985,000000	74,096620
984,000000	73,993631
983,000000	74,051602
982,000000	74,166616
981,000000	74,120613
980,000000	74,034020
979,000000	74,050191
978,000000	74,117100
977,000000	74,237487
976,000000	74,216974
975,000000	74,121484
974,000000	74,155873
973,000000	74,186701
972,000000	74,227043
971,000000	74,257682
970,000000	74,340373
969,000000	74,436991
968,000000	74,514601
967,000000	74,576449
966,000000	74,665562
965,000000	74,708551
964,000000	74,755237
963,000000	74,767842
962,000000	74,784133
961,000000	74,800770
960,000000	74,816819
959,000000	74,824125
958,000000	74,860135
957,000000	74,874677
956,000000	74,885413
955,000000	74,887274
954,000000	74,890892
953,000000	74,891903
952,000000	74,917975
951,000000	74,930644
950,000000	74,945173
949,000000	74,962827
948,000000	74,972430
947,000000	74,974996
946,000000	74,988486
945,000000	74,986532
944,000000	74,999828
943,000000	75,030848
942,000000	75,037710
941,000000	75,031397
940,000000	75,047276
939,000000	75,033408
938,000000	75,018632
937,000000	75,031724
936,000000	75,055042
935,000000	75,041352
934,000000	75,034700
933,000000	75,043122
932,000000	75,023660
931,000000	75,012125
930,000000	75,019843
929,000000	75,012819
928,000000	74,991070
927,000000	75,018366
926,000000	75,032720
925,000000	75,009843
924,000000	74,980420
923,000000	74,987498
922,000000	74,985563
921,000000	74,993146
920,000000	75,001017
919,000000	74,976787
918,000000	74,942849
917,000000	74,949641
916,000000	74,953455
915,000000	74,951493
914,000000	74,920740
913,000000	74,900678
912,000000	74,884577
911,000000	74,894226
910,000000	74,869331
909,000000	74,861857
908,000000	74,849516
907,000000	74,872717
906,000000	74,859808
905,000000	74,857849
904,000000	74,811831
903,000000	74,820480
902,000000	74,844115
901,000000	74,834817
900,000000	74,792266
899,000000	74,791601
898,000000	74,843458
897,000000	74,861615
896,000000	74,844952
895,000000	74,848130
894,000000	74,798425
893,000000	74,810285
892,000000	74,824928
891,000000	74,851895
890,000000	74,860226
889,000000	74,869080
888,000000	74,839267
887,000000	74,879074
886,000000	74,857933
885,000000	74,905920
884,000000	74,854639
883,000000	74,922686
882,000000	74,930251
881,000000	74,948088
880,000000	74,910662
879,000000	74,943328
878,000000	74,914354
877,000000	74,997874
876,000000	74,989967
875,000000	75,027570
874,000000	74,994765
873,000000	75,095910
872,000000	75,067873
871,000000	75,102378
870,000000	75,084636
869,000000	75,117311
868,000000	75,132809
867,000000	75,211525
866,000000	75,132063
865,000000	75,257570
864,000000	75,186160
863,000000	75,219531
862,000000	75,224794
861,000000	75,721176
860,000000	75,994688
859,000000	75,340296
858,000000	75,434864
857,000000	75,108366
856,000000	75,144778
855,000000	75,322899
854,000000	75,452930
853,000000	75,720054
852,000000	75,309482
851,000000	75,214767
850,000000	75,173062
849,000000	75,767635
848,000000	75,237082
847,000000	75,120303
846,000000	75,295274
845,000000	75,670354
844,000000	75,627674
843,000000	75,208270
842,000000	75,295758
841,000000	75,307009
840,000000	75,026565
839,000000	75,259032
838,000000	75,084673
837,000000	75,208489
836,000000	75,450207
835,000000	75,249942
834,000000	75,214915
833,000000	75,283777
832,000000	75,482159
831,000000	75,282539
830,000000	75,206505
829,000000	75,347266
828,000000	75,268884
827,000000	75,378403
826,000000	75,252022
825,000000	75,279859
824,000000	75,319341
823,000000	75,169860
822,000000	75,282643
821,000000	75,222729
820,000000	75,230705
819,000000	75,136660
818,000000	75,258900
817,000000	75,428996
816,000000	75,538682
815,000000	75,430347
814,000000	75,530099
813,000000	75,504315
812,000000	75,465932
811,000000	75,365095
810,000000	75,571331
809,000000	75,794098
808,000000	75,690284
807,000000	75,423805
806,000000	75,389938
805,000000	75,688648
804,000000	75,767999
803,000000	75,719290
802,000000	75,710245
801,000000	75,968110
800,000000	75,883879
799,000000	75,942579
798,000000	75,938727
797,000000	75,779183
796,000000	75,796151
795,000000	75,954098
794,000000	75,847708
793,000000	75,893112
792,000000	75,938586
791,000000	76,017547
790,000000	75,947092
789,000000	76,090957
788,000000	76,141599
787,000000	75,944119
786,000000	75,972723
785,000000	76,110504
784,000000	76,285494
783,000000	76,056592
782,000000	76,207146
781,000000	76,092348
780,000000	76,281938
779,000000	76,248115
778,000000	76,294893
777,000000	76,311509
776,000000	76,225209
775,000000	76,058778
774,000000	76,203893
773,000000	76,311563
772,000000	76,165194
771,000000	76,191751
770,000000	76,288993
769,000000	76,337598
768,000000	76,210433
767,000000	76,264059
766,000000	76,139773
765,000000	76,264271
764,000000	76,398219
763,000000	76,325887
762,000000	76,398264
761,000000	76,465341
760,000000	76,389719
759,000000	76,266890
758,000000	76,411345
757,000000	76,354985
756,000000	76,438971
755,000000	76,372066
754,000000	76,527622
753,000000	76,513338
752,000000	76,423827
751,000000	76,404316
750,000000	76,456666
749,000000	76,578320
748,000000	76,529289
747,000000	76,589540
746,000000	76,594555
745,000000	76,641112
744,000000	76,612424
743,000000	76,648310
742,000000	76,603945
741,000000	76,660999
740,000000	76,730845
739,000000	76,689274
738,000000	76,823856
737,000000	76,808970
736,000000	76,911816
735,000000	76,924549
734,000000	76,795345
733,000000	76,910686
732,000000	76,903468
731,000000	76,873437
730,000000	76,821099
729,000000	76,964084
728,000000	76,944125
727,000000	76,869300
726,000000	76,856732
725,000000	76,977221
724,000000	76,999828
723,000000	77,081957
722,000000	77,027951
721,000000	77,012409
720,000000	76,901933
719,000000	77,054805
718,000000	77,102770
717,000000	77,094276
716,000000	77,019324
715,000000	77,131238
714,000000	77,103837
713,000000	77,101099
712,000000	77,108818
711,000000	77,074619
710,000000	77,167688
709,000000	77,287555
708,000000	77,223113
707,000000	77,111047
706,000000	77,161845
705,000000	77,159734
704,000000	77,145654
703,000000	77,193747
702,000000	77,230616
701,000000	77,262718
700,000000	77,202751
699,000000	77,179560
698,000000	77,282577
697,000000	77,258322
696,000000	77,246400
695,000000	77,258501
694,000000	77,279039
693,000000	77,356856
692,000000	77,263519
691,000000	77,294200
690,000000	77,310192
689,000000	77,305180
688,000000	77,333563
687,000000	77,324457
686,000000	77,338641
685,000000	77,333306
684,000000	77,336809
683,000000	77,397384
682,000000	77,481243
681,000000	77,457363
680,000000	77,474220
679,000000	77,473963
678,000000	77,447000
677,000000	77,497972
676,000000	77,441571
675,000000	77,427849
674,000000	77,507250
673,000000	77,560403
672,000000	77,545422
671,000000	77,521583
670,000000	77,550654
669,000000	77,563477
668,000000	77,519358
667,000000	77,503519
666,000000	77,499001
665,000000	77,550854
664,000000	77,558925
663,000000	77,617821
662,000000	77,620518
661,000000	77,542881
660,000000	77,565026
659,000000	77,634353
658,000000	77,622677
657,000000	77,589453
656,000000	77,638302
655,000000	77,624327
654,000000	77,629767
653,000000	77,669294
652,000000	77,674842
651,000000	77,639107
650,000000	77,646636
649,000000	77,715363
648,000000	77,718182
647,000000	77,681352
646,000000	77,701675
645,000000	77,767103
644,000000	77,743596
643,000000	77,750263
642,000000	77,758861
641,000000	77,700871
640,000000	77,709360
639,000000	77,762365
638,000000	77,769924
637,000000	77,763870
636,000000	77,801819
635,000000	77,821283
634,000000	77,795357
633,000000	77,811879
632,000000	77,823011
631,000000	77,788514
630,000000	77,801253
629,000000	77,822877
628,000000	77,850797
627,000000	77,828624
626,000000	77,827619
625,000000	77,865092
624,000000	77,857161
623,000000	77,831993
622,000000	77,818681
621,000000	77,862295
620,000000	77,873943
619,000000	77,851192
618,000000	77,865762
617,000000	77,895264
616,000000	77,911560
615,000000	77,864617
614,000000	77,844424
613,000000	77,831858
612,000000	77,852169
611,000000	77,848623
610,000000	77,891779
609,000000	77,928147
608,000000	77,927323
607,000000	77,874747
606,000000	77,840378
605,000000	77,901920
604,000000	77,930907
603,000000	77,901445
602,000000	77,938010
601,000000	77,958650
600,000000	77,976545
599,000000	77,967897
598,000000	77,934280
597,000000	77,909318
596,000000	77,898592
595,000000	77,915790
594,000000	77,928310
593,000000	77,894869
592,000000	77,875534
591,000000	77,909261
590,000000	77,939613
589,000000	77,906536
588,000000	77,878844
587,000000	77,862616
586,000000	77,867218
585,000000	77,872940
584,000000	77,880078
583,000000	77,838633
582,000000	77,842473
581,000000	77,892939
580,000000	77,896492
579,000000	77,899589
578,000000	77,863875
577,000000	77,866178
576,000000	77,903502
575,000000	77,936255
574,000000	77,912087
573,000000	77,918370
572,000000	77,941649
571,000000	77,892499
570,000000	77,925669
569,000000	77,872645
568,000000	77,875047
567,000000	77,918857
566,000000	77,932558
565,000000	77,902591
564,000000	77,887056
563,000000	77,877841
562,000000	77,871812
561,000000	77,918623
560,000000	77,979782
559,000000	77,990531
558,000000	77,940946
557,000000	77,942754
556,000000	77,961348
555,000000	77,972675
554,000000	77,966515
553,000000	77,955272
552,000000	77,942107
551,000000	77,915597
550,000000	77,925299
549,000000	77,875217
548,000000	77,918856
547,000000	77,881111
546,000000	77,885696
545,000000	77,887120
544,000000	77,896173
543,000000	77,880441
542,000000	77,861456
541,000000	77,875486
540,000000	77,885656
539,000000	77,839821
538,000000	77,827595
537,000000	77,871613
536,000000	77,815216
535,000000	77,836070
534,000000	77,800423
533,000000	77,786011
532,000000	77,754468
531,000000	77,713547
530,000000	77,731072
529,000000	77,724048
528,000000	77,725019
527,000000	77,709914
526,000000	77,660673
525,000000	77,646519
524,000000	77,630872
523,000000	77,596805
522,000000	77,537013
521,000000	77,550665
520,000000	77,500647
519,000000	77,498378
518,000000	77,461844
517,000000	77,423705
516,000000	77,427619
515,000000	77,367775
514,000000	77,333856
513,000000	77,268134
512,000000	77,246686
511,000000	77,286499
510,000000	77,244543
509,000000	77,127619
508,000000	77,171795
507,000000	77,111194
506,000000	77,076935
505,000000	77,061531
504,000000	77,004411
503,000000	77,059892
502,000000	76,994465
501,000000	77,037079
500,000000	77,032579
499,000000	77,030411
498,000000	77,053865
497,000000	76,984080
496,000000	77,010543
495,000000	76,973526
494,000000	76,957859
493,000000	77,080441
492,000000	77,099101
491,000000	77,055405
490,000000	77,100831
489,000000	77,153074
488,000000	77,068560
487,000000	77,115173
486,000000	77,177168
485,000000	77,075596
484,000000	77,147592
483,000000	77,269165
482,000000	77,194610
481,000000	77,141525
480,000000	77,068330
479,000000	77,027455
478,000000	76,953806
477,000000	76,867515
476,000000	76,793646
475,000000	76,814573
474,000000	76,714579
473,000000	76,660087
472,000000	76,656870
471,000000	76,546842
470,000000	76,507035
469,000000	76,473985
468,000000	76,368209
467,000000	76,316876
466,000000	76,275465
465,000000	76,229088
464,000000	76,200924
463,000000	76,119885
462,000000	76,078872
461,000000	76,012175
460,000000	75,952171
459,000000	75,855559
458,000000	75,794485
457,000000	75,789426
456,000000	75,866801
455,000000	75,760509
454,000000	75,638578
453,000000	75,615974
452,000000	75,505415
451,000000	75,484952
450,000000	75,420541
449,000000	75,324192
448,000000	75,217377
447,000000	75,089292
446,000000	75,111817
445,000000	75,083039
444,000000	74,999876
443,000000	74,860384
442,000000	74,731233
441,000000	74,576911
440,000000	74,489247
439,000000	74,378623
438,000000	74,207252
437,000000	74,039703
436,000000	73,895040
435,000000	73,772261
434,000000	73,588917
433,000000	73,402405
432,000000	73,242354
431,000000	73,009932
430,000000	72,685166
429,000000	72,399316
428,000000	71,933418
427,000000	71,542879
426,000000	70,969311
425,000000	70,224152
424,000000	69,488016
423,000000	68,567283
422,000000	67,511260
421,000000	66,264714
420,000000	64,881990
419,000000	63,566129
418,000000	62,127259
417,000000	60,691408
416,000000	59,291402
415,000000	57,960501
414,000000	56,817421
413,000000	55,730928
412,000000	54,821802
411,000000	54,157556
410,000000	53,625809
409,000000	53,169650
408,000000	52,848522
407,000000	52,736925
406,000000	52,584781
405,000000	52,536062
404,000000	52,605457
403,000000	52,704293
402,000000	52,852673
401,000000	52,976097
400,000000	53,144250
399,000000	53,369566
398,000000	53,503066
397,000000	53,682074
396,000000	53,862274
395,000000	53,976610
394,000000	54,085365
393,000000	54,205686
392,000000	54,343783
391,000000	54,515967
390,000000	54,556808
389,000000	54,607522
388,000000	54,704231
387,000000	54,848242
386,000000	54,926792
385,000000	55,012143
384,000000	55,136421
383,000000	55,232887
382,000000	55,396756
381,000000	55,552160
380,000000	55,803935
379,000000	56,151684
378,000000	56,601792
377,000000	56,857618
376,000000	56,919556
375,000000	57,161325
374,000000	57,784290
373,000000	58,700277
372,000000	59,122509
371,000000	59,921406
370,000000	60,683738
369,000000	61,418506
368,000000	62,247512
367,000000	62,802231
366,000000	63,482458
365,000000	64,273952
364,000000	65,104019
363,000000	65,571712
362,000000	65,924414
361,000000	66,239310
360,000000	67,010041
359,000000	67,643581
358,000000	67,695232
357,000000	67,712091
356,000000	68,237045
355,000000	68,637011
354,000000	69,031829
353,000000	69,452544
352,000000	69,788441
351,000000	70,111042
350,000000	70,497137
349,000000	71,022120
348,000000	71,108803
347,000000	71,302523
346,000000	71,763616
345,000000	71,980808
344,000000	71,746477
343,000000	71,659577
342,000000	71,499151
341,000000	70,975321
340,000000	71,084802
339,000000	71,338972
338,000000	70,933266
337,000000	70,601132
336,000000	70,076772
335,000000	69,758462
334,000000	69,847936
333,000000	69,352485
332,000000	68,719707
331,000000	68,584142
330,000000	68,413040
329,000000	67,917458
328,000000	67,508642
327,000000	67,682566
326,000000	67,905575
325,000000	67,292950
324,000000	66,415306
323,000000	66,104909
322,000000	65,885929
321,000000	65,712723
320,000000	65,606881
319,000000	65,635832
318,000000	65,677413
317,000000	65,569406
316,000000	65,393591
315,000000	65,314802
314,000000	65,281034
313,000000	65,148170
312,000000	65,041358
311,000000	65,044915
310,000000	65,074964
309,000000	65,333105
308,000000	65,667793
307,000000	65,958067
306,000000	66,507754
305,000000	67,177775
304,000000	67,763156
303,000000	68,103036
302,000000	68,336274
301,000000	68,619360
300,000000	69,011368
299,000000	69,310178
298,000000	69,837167
297,000000	70,454281
296,000000	71,104953
295,000000	71,783000
294,000000	72,522777
293,000000	73,302112
292,000000	74,181592
291,000000	75,247835
290,000000	76,269585
289,000000	77,170772
288,000000	78,164942
287,000000	79,300398
286,000000	80,649038
285,000000	81,911270
284,000000	82,943928
283,000000	83,964858
282,000000	84,855455
281,000000	85,792607
280,000000	86,671659
279,000000	87,696229
278,000000	88,563759
277,000000	89,322209
276,000000	90,091117
275,000000	90,657263
274,000000	91,327467
273,000000	91,882662
272,000000	92,317101
271,000000	92,718003
270,000000	92,967571
269,000000	93,254585
268,000000	93,491619
267,000000	93,725214
266,000000	93,945727
265,000000	94,435946
264,000000	95,143343
263,000000	95,739784
262,000000	96,196911
261,000000	96,856407
260,000000	97,569959
259,000000	98,243024
258,000000	98,939553
257,000000	99,903660
256,000000	101,227570
255,000000	102,364515
254,000000	103,431192
253,000000	104,731895
252,000000	106,192900
251,000000	107,955613
250,000000	109,561382
249,000000	111,009504
248,000000	112,317526
247,000000	113,455685
246,000000	114,919009
245,000000	116,364212
244,000000	117,985324
243,000000	119,910684
242,000000	122,151709
241,000000	123,998716
240,000000	125,833948
239,000000	127,921673
238,000000	130,216859
237,000000	132,976458
236,000000	136,423923
235,000000	139,902458
234,000000	143,785556
233,000000	146,923157
232,000000	149,823639
231,000000	152,696773
230,000000	154,352209
229,000000	158,786162
228,000000	161,997822
227,000000	165,203738
226,000000	168,341697
225,000000	171,550024
224,000000	174,009148
223,000000	176,877162
222,000000	180,091258
221,000000	182,382309
220,000000	184,880830
219,000000	187,558114
218,000000	190,020005
217,000000	192,560789
216,000000	195,081987
215,000000	197,761895
214,000000	200,310740
213,000000	203,033461
212,000000	207,284657
211,000000	211,300131
210,000000	215,273649
209,000000	221,526231
208,000000	226,910743
207,000000	232,902107
206,000000	240,553654
205,000000	249,759426
204,000000	258,312211
203,000000	268,695152
202,000000	279,737682
201,000000	293,266399
200,000000	304,499368
