PE UV       SUBTECH     SPECTRUM    ASCII       PEDS        4.00        
   -1
sampleA_R.Sample
22/01/26
14:47:15.00
22/01/26
14:47:15.00
Administrator

200,000000
1
Lambda 1050
1050L1808311
PerkinElmer UV WinLab 6.4.0.973 / 2.02.11 Lambda 900 UV/VIS/NIR, May 23 2018 11:23:04

0
0
3350/servo 860,8/2
0
0
UV/VIS
1
1
1
CommonBeamDepol,RBeamAtt,SBeamAtt,60mm sphere
0
0
0
0
Program
Program
3350/servo 860,8/2
3350/0,2 860,8/0,2
3350/0,2 860,8/0,2
0
1
 
 
 
0
 
860,8
319,2
860,8
Front
100
on
S:100 R:100
 
0
0
0
 
0
 
 
 
0
 
 
0
0
0
0
0
 
 
 
 
0
0


0
0
#HDR
-1
-1
#GR
nm
%R
1.0
0.0
2000,000000
-1,000000
1801
8
328,575433
58,103343
#DATA
2000,000000	92,010342
1999,000000	91,840725
1998,000000	91,696287
1997,000000	91,687406
1996,000000	91,627109
1995,000000	91,658355
1994,000000	91,541519
1993,000000	91,571068
1992,000000	91,535797
1991,000000	91,464285
1990,000000	91,354291
1989,000000	91,346580
1988,000000	91,262893
1987,000000	91,354984
1986,000000	91,304254
1985,000000	91,284491
1984,000000	91,196511
1983,000000	91,282516
1982,000000	91,300873
1981,000000	91,268410
1980,000000	91,294682
1979,000000	91,449108
1978,000000	91,370245
1977,000000	91,383329
1976,000000	91,363402
1975,000000	91,407562
1974,000000	91,334208
1973,000000	91,331672
1972,000000	91,279597
1971,000000	91,334051
1970,000000	91,251818
1969,000000	91,197163
1968,000000	91,105769
1967,000000	91,151367
1966,000000	91,143707
1965,000000	91,122613
1964,000000	91,181863
1963,000000	91,157430
1962,000000	91,169164
1961,000000	91,136681
1960,000000	91,067384
1959,000000	91,082591
1958,000000	91,123581
1957,000000	91,058947
1956,000000	91,047864
1955,000000	91,037084
1954,000000	90,894051
1953,000000	90,788109
1952,000000	90,760480
1951,000000	90,701341
1950,000000	90,694222
1949,000000	90,648365
1948,000000	90,628879
1947,000000	90,598305
1946,000000	90,541117
1945,000000	90,550013
1944,000000	90,550011
1943,000000	90,530824
1942,000000	90,486536
1941,000000	90,501122
1940,000000	90,475949
1939,000000	90,499866
1938,000000	90,445927
1937,000000	90,393815
1936,000000	90,404056
1935,000000	90,446652
1934,000000	90,530094
1933,000000	90,637082
1932,000000	90,552684
1931,000000	90,524521
1930,000000	90,516341
1929,000000	90,479173
1928,000000	90,425337
1927,000000	90,440455
1926,000000	90,407532
1925,000000	90,394497
1924,000000	90,390993
1923,000000	90,378963
1922,000000	90,395800
1921,000000	90,334716
1920,000000	90,283810
1919,000000	90,285706
1918,000000	90,277892
1917,000000	90,262079
1916,000000	90,250236
1915,000000	90,231601
1914,000000	90,217746
1913,000000	90,236664
1912,000000	90,220637
1911,000000	90,150330
1910,000000	90,056983
1909,000000	90,040907
1908,000000	89,929647
1907,000000	89,916992
1906,000000	89,889301
1905,000000	89,869529
1904,000000	89,803673
1903,000000	89,774868
1902,000000	89,763203
1901,000000	89,734817
1900,000000	89,688946
1899,000000	89,666409
1898,000000	89,585253
1897,000000	89,590123
1896,000000	89,557801
1895,000000	89,523715
1894,000000	89,545008
1893,000000	89,505799
1892,000000	89,450280
1891,000000	89,485909
1890,000000	89,485046
1889,000000	89,442807
1888,000000	89,357182
1887,000000	89,297285
1886,000000	89,263491
1885,000000	89,257199
1884,000000	89,246562
1883,000000	89,267155
1882,000000	89,246552
1881,000000	89,209294
1880,000000	89,172943
1879,000000	89,183827
1878,000000	89,155390
1877,000000	89,128100
1876,000000	89,107371
1875,000000	89,093369
1874,000000	89,056755
1873,000000	89,047912
1872,000000	89,013364
1871,000000	89,034571
1870,000000	89,044646
1869,000000	89,005993
1868,000000	88,974094
1867,000000	88,943314
1866,000000	88,913090
1865,000000	88,875665
1864,000000	88,880362
1863,000000	88,896971
1862,000000	88,863515
1861,000000	88,827530
1860,000000	88,833975
1859,000000	88,850430
1858,000000	88,845248
1857,000000	88,842218
1856,000000	88,848006
1855,000000	88,830866
1854,000000	88,813392
1853,000000	88,807637
1852,000000	88,808143
1851,000000	88,797239
1850,000000	88,788767
1849,000000	88,796082
1848,000000	88,814065
1847,000000	88,828647
1846,000000	88,800393
1845,000000	88,784845
1844,000000	88,801695
1843,000000	88,801818
1842,000000	88,790329
1841,000000	88,790119
1840,000000	88,769177
1839,000000	88,750401
1838,000000	88,739749
1837,000000	88,786764
1836,000000	88,870744
1835,000000	88,896425
1834,000000	88,928697
1833,000000	88,932948
1832,000000	88,920429
1831,000000	88,901009
1830,000000	88,911745
1829,000000	88,914072
1828,000000	88,912449
1827,000000	88,905111
1826,000000	88,897335
1825,000000	88,890908
1824,000000	88,872554
1823,000000	88,867868
1822,000000	88,880372
1821,000000	88,903849
1820,000000	88,906398
1819,000000	88,870455
1818,000000	88,882918
1817,000000	88,910561
1816,000000	88,908993
1815,000000	88,903461
1814,000000	88,918470
1813,000000	88,927272
1812,000000	88,926863
1811,000000	88,929120
1810,000000	88,940314
1809,000000	88,949169
1808,000000	88,927376
1807,000000	88,921025
1806,000000	88,927593
1805,000000	88,916075
1804,000000	88,931741
1803,000000	88,932694
1802,000000	88,945023
1801,000000	88,961020
1800,000000	88,966989
1799,000000	88,960676
1798,000000	88,997201
1797,000000	89,015910
1796,000000	89,012989
1795,000000	89,014648
1794,000000	89,018888
1793,000000	89,029782
1792,000000	89,059047
1791,000000	89,068867
1790,000000	89,091033
1789,000000	89,111047
1788,000000	89,123622
1787,000000	89,090679
1786,000000	89,108834
1785,000000	89,101075
1784,000000	89,117150
1783,000000	89,141899
1782,000000	89,179395
1781,000000	89,204056
1780,000000	89,208649
1779,000000	89,210196
1778,000000	89,226475
1777,000000	89,240397
1776,000000	89,273700
1775,000000	89,280757
1774,000000	89,292578
1773,000000	89,314016
1772,000000	89,359255
1771,000000	89,370214
1770,000000	89,409402
1769,000000	89,411293
1768,000000	89,446670
1767,000000	89,450436
1766,000000	89,493168
1765,000000	89,514440
1764,000000	89,534508
1763,000000	89,539426
1762,000000	89,581475
1761,000000	89,601128
1760,000000	89,623875
1759,000000	89,630595
1758,000000	89,688192
1757,000000	89,690136
1756,000000	89,707739
1755,000000	89,709714
1754,000000	89,774071
1753,000000	89,753618
1752,000000	89,748352
1751,000000	89,769730
1750,000000	89,796068
1749,000000	89,827516
1748,000000	89,856945
1747,000000	89,849958
1746,000000	89,897076
1745,000000	89,925879
1744,000000	89,923082
1743,000000	89,935677
1742,000000	89,989040
1741,000000	89,967286
1740,000000	89,992228
1739,000000	90,001019
1738,000000	90,035035
1737,000000	90,072130
1736,000000	90,081619
1735,000000	90,109414
1734,000000	90,161236
1733,000000	90,118126
1732,000000	90,177843
1731,000000	90,164288
1730,000000	90,211572
1729,000000	90,234220
1728,000000	90,300589
1727,000000	90,292001
1726,000000	90,313305
1725,000000	90,333308
1724,000000	90,339390
1723,000000	90,320261
1722,000000	90,376570
1721,000000	90,384026
1720,000000	90,420934
1719,000000	90,408023
1718,000000	90,450615
1717,000000	90,425283
1716,000000	90,449827
1715,000000	90,450118
1714,000000	90,478923
1713,000000	90,480375
1712,000000	90,481633
1711,000000	90,500060
1710,000000	90,494622
1709,000000	90,504935
1708,000000	90,532405
1707,000000	90,527107
1706,000000	90,539951
1705,000000	90,509436
1704,000000	90,569673
1703,000000	90,535900
1702,000000	90,535564
1701,000000	90,551623
1700,000000	90,549060
1699,000000	90,551487
1698,000000	90,546020
1697,000000	90,544478
1696,000000	90,537704
1695,000000	90,558843
1694,000000	90,540987
1693,000000	90,493107
1692,000000	90,576587
1691,000000	90,552998
1690,000000	90,562227
1689,000000	90,545700
1688,000000	90,538506
1687,000000	90,523393
1686,000000	90,528408
1685,000000	90,547776
1684,000000	90,533583
1683,000000	90,527721
1682,000000	90,532798
1681,000000	90,551033
1680,000000	90,544334
1679,000000	90,541669
1678,000000	90,553537
1677,000000	90,577762
1676,000000	90,571624
1675,000000	90,612564
1674,000000	90,597590
1673,000000	90,608079
1672,000000	90,603959
1671,000000	90,639305
1670,000000	90,627346
1669,000000	90,632322
1668,000000	90,644704
1667,000000	90,654030
1666,000000	90,671263
1665,000000	90,662910
1664,000000	90,686317
1663,000000	90,651557
1662,000000	90,686463
1661,000000	90,699442
1660,000000	90,719684
1659,000000	90,685798
1658,000000	90,701861
1657,000000	90,707349
1656,000000	90,703816
1655,000000	90,707948
1654,000000	90,708813
1653,000000	90,701556
1652,000000	90,683350
1651,000000	90,673223
1650,000000	90,664241
1649,000000	90,638096
1648,000000	90,648896
1647,000000	90,649325
1646,000000	90,646107
1645,000000	90,645818
1644,000000	90,624888
1643,000000	90,608425
1642,000000	90,617692
1641,000000	90,601585
1640,000000	90,607730
1639,000000	90,594147
1638,000000	90,574471
1637,000000	90,573335
1636,000000	90,580776
1635,000000	90,550569
1634,000000	90,525186
1633,000000	90,542225
1632,000000	90,547565
1631,000000	90,498360
1630,000000	90,493914
1629,000000	90,495608
1628,000000	90,492021
1627,000000	90,463652
1626,000000	90,461237
1625,000000	90,408903
1624,000000	90,255983
1623,000000	90,084374
1622,000000	89,920920
1621,000000	89,918579
1620,000000	89,899848
1619,000000	89,874715
1618,000000	89,861796
1617,000000	89,785346
1616,000000	89,619983
1615,000000	89,599141
1614,000000	89,599311
1613,000000	89,597509
1612,000000	89,617156
1611,000000	89,709726
1610,000000	89,810843
1609,000000	89,772031
1608,000000	89,749554
1607,000000	89,738825
1606,000000	89,758714
1605,000000	89,721993
1604,000000	89,680126
1603,000000	89,576762
1602,000000	89,423409
1601,000000	89,394555
1600,000000	89,433637
1599,000000	89,563882
1598,000000	89,556989
1597,000000	89,445061
1596,000000	89,291522
1595,000000	89,351057
1594,000000	89,485754
1593,000000	89,465659
1592,000000	89,438662
1591,000000	89,322384
1590,000000	89,164461
1589,000000	89,231989
1588,000000	89,365018
1587,000000	89,374685
1586,000000	89,300293
1585,000000	89,130944
1584,000000	89,176998
1583,000000	89,280426
1582,000000	89,261509
1581,000000	89,185665
1580,000000	89,118024
1579,000000	89,220973
1578,000000	89,191446
1577,000000	89,084246
1576,000000	89,032398
1575,000000	89,141069
1574,000000	89,112685
1573,000000	89,003292
1572,000000	88,955538
1571,000000	89,055786
1570,000000	89,023433
1569,000000	88,998019
1568,000000	88,989785
1567,000000	88,967792
1566,000000	88,948184
1565,000000	88,925195
1564,000000	88,799825
1563,000000	88,733346
1562,000000	88,810249
1561,000000	88,778687
1560,000000	88,758881
1559,000000	88,646059
1558,000000	88,627900
1557,000000	88,740310
1556,000000	88,741602
1555,000000	88,731368
1554,000000	88,712435
1553,000000	88,692047
1552,000000	88,573312
1551,000000	88,446407
1550,000000	88,524992
1549,000000	88,603675
1548,000000	88,590618
1547,000000	88,579791
1546,000000	88,555909
1545,000000	88,536632
1544,000000	88,521560
1543,000000	88,507813
1542,000000	88,489862
1541,000000	88,381252
1540,000000	88,287486
1539,000000	88,388937
1538,000000	88,477610
1537,000000	88,449723
1536,000000	88,434164
1535,000000	88,416100
1534,000000	88,399567
1533,000000	88,393647
1532,000000	88,378988
1531,000000	88,361281
1530,000000	88,351778
1529,000000	88,354565
1528,000000	88,333518
1527,000000	88,210736
1526,000000	88,239045
1525,000000	88,314242
1524,000000	88,311149
1523,000000	88,319679
1522,000000	88,317367
1521,000000	88,318721
1520,000000	88,298486
1519,000000	88,290595
1518,000000	88,174409
1517,000000	88,197917
1516,000000	88,281241
1515,000000	88,283824
1514,000000	88,266785
1513,000000	88,266077
1512,000000	88,271691
1511,000000	88,277426
1510,000000	88,290136
1509,000000	88,284538
1508,000000	88,289325
1507,000000	88,286869
1506,000000	88,288134
1505,000000	88,308131
1504,000000	88,304816
1503,000000	88,312670
1502,000000	88,308209
1501,000000	88,321061
1500,000000	88,329648
1499,000000	88,330059
1498,000000	88,322101
1497,000000	88,321960
1496,000000	88,336616
1495,000000	88,343387
1494,000000	88,342324
1493,000000	88,363626
1492,000000	88,378816
1491,000000	88,399959
1490,000000	88,416722
1489,000000	88,454485
1488,000000	88,456159
1487,000000	88,487880
1486,000000	88,470423
1485,000000	88,469947
1484,000000	88,492944
1483,000000	88,518370
1482,000000	88,545189
1481,000000	88,577319
1480,000000	88,576524
1479,000000	88,602476
1478,000000	88,591329
1477,000000	88,603806
1476,000000	88,763612
1475,000000	88,824280
1474,000000	88,698968
1473,000000	88,711511
1472,000000	88,723563
1471,000000	88,727744
1470,000000	88,734054
1469,000000	88,756810
1468,000000	88,779039
1467,000000	88,810329
1466,000000	88,819383
1465,000000	88,828126
1464,000000	88,987523
1463,000000	88,917416
1462,000000	88,891236
1461,000000	88,905917
1460,000000	88,918321
1459,000000	88,924430
1458,000000	88,951871
1457,000000	89,107722
1456,000000	89,016421
1455,000000	89,022646
1454,000000	89,025697
1453,000000	89,078917
1452,000000	89,107932
1451,000000	89,138767
1450,000000	89,127790
1449,000000	89,139416
1448,000000	89,175276
1447,000000	89,184311
1446,000000	89,188332
1445,000000	89,222896
1444,000000	89,235159
1443,000000	89,384068
1442,000000	89,427233
1441,000000	89,474795
1440,000000	89,350084
1439,000000	89,347135
1438,000000	89,366444
1437,000000	89,386900
1436,000000	89,401346
1435,000000	89,413170
1434,000000	89,392235
1433,000000	89,440926
1432,000000	89,460354
1431,000000	89,478964
1430,000000	89,489959
1429,000000	89,514917
1428,000000	89,526885
1427,000000	89,551278
1426,000000	89,564897
1425,000000	89,565248
1424,000000	89,583431
1423,000000	89,613290
1422,000000	89,735772
1421,000000	89,665837
1420,000000	89,646294
1419,000000	89,543297
1418,000000	89,652657
1417,000000	89,676611
1416,000000	89,682032
1415,000000	89,702910
1414,000000	89,712041
1413,000000	89,717991
1412,000000	89,557315
1411,000000	89,704297
1410,000000	89,717165
1409,000000	89,732440
1408,000000	89,569727
1407,000000	89,738324
1406,000000	89,723083
1405,000000	89,692625
1404,000000	89,508319
1403,000000	89,714980
1402,000000	89,714789
1401,000000	89,706019
1400,000000	89,713684
1399,000000	89,716012
1398,000000	89,708111
1397,000000	89,722780
1396,000000	89,728622
1395,000000	89,738888
1394,000000	89,709268
1393,000000	89,695956
1392,000000	89,677933
1391,000000	89,692842
1390,000000	89,660107
1389,000000	89,653402
1388,000000	89,628582
1387,000000	89,639804
1386,000000	89,613619
1385,000000	89,637676
1384,000000	89,589205
1383,000000	89,599375
1382,000000	89,597013
1381,000000	89,569494
1380,000000	89,586314
1379,000000	89,611600
1378,000000	89,566653
1377,000000	89,421862
1376,000000	89,399324
1375,000000	89,513040
1374,000000	89,503294
1373,000000	89,495591
1372,000000	89,459951
1371,000000	89,428052
1370,000000	89,422498
1369,000000	89,416465
1368,000000	89,392529
1367,000000	89,376620
1366,000000	89,349572
1365,000000	89,339967
1364,000000	89,299877
1363,000000	89,278017
1362,000000	89,235762
1361,000000	89,218021
1360,000000	89,171733
1359,000000	89,152976
1358,000000	89,119591
1357,000000	89,097196
1356,000000	89,066300
1355,000000	89,057944
1354,000000	89,056527
1353,000000	89,030044
1352,000000	89,018170
1351,000000	88,998623
1350,000000	88,980366
1349,000000	89,061239
1348,000000	89,046049
1347,000000	89,000701
1346,000000	88,848166
1345,000000	88,830176
1344,000000	88,810045
1343,000000	88,808676
1342,000000	88,913050
1341,000000	88,885845
1340,000000	88,739590
1339,000000	88,724241
1338,000000	88,697161
1337,000000	88,704033
1336,000000	88,697226
1335,000000	88,768243
1334,000000	88,693440
1333,000000	88,609825
1332,000000	88,580546
1331,000000	88,570503
1330,000000	88,549403
1329,000000	88,533451
1328,000000	88,492931
1327,000000	88,476669
1326,000000	88,439486
1325,000000	88,426537
1324,000000	88,411015
1323,000000	88,385171
1322,000000	88,364807
1321,000000	88,355939
1320,000000	88,318739
1319,000000	88,335214
1318,000000	88,357668
1317,000000	88,326031
1316,000000	88,223391
1315,000000	88,185093
1314,000000	88,163435
1313,000000	88,156380
1312,000000	88,159879
1311,000000	88,208590
1310,000000	88,195390
1309,000000	88,186229
1308,000000	88,177999
1307,000000	88,152544
1306,000000	88,124606
1305,000000	88,105505
1304,000000	88,081424
1303,000000	88,104160
1302,000000	88,085076
1301,000000	88,075072
1300,000000	88,044717
1299,000000	88,000116
1298,000000	87,939865
1297,000000	87,955602
1296,000000	87,972506
1295,000000	87,999804
1294,000000	87,910145
1293,000000	87,901430
1292,000000	87,899660
1291,000000	87,924892
1290,000000	88,008731
1289,000000	87,981632
1288,000000	87,890459
1287,000000	87,908466
1286,000000	87,911621
1285,000000	87,914240
1284,000000	87,960981
1283,000000	87,968722
1282,000000	87,948565
1281,000000	87,888616
1280,000000	87,877984
1279,000000	87,876966
1278,000000	87,867513
1277,000000	87,887269
1276,000000	87,892628
1275,000000	87,904898
1274,000000	87,914559
1273,000000	87,918960
1272,000000	87,933535
1271,000000	87,958794
1270,000000	87,974906
1269,000000	88,036865
1268,000000	88,036676
1267,000000	88,016965
1266,000000	87,982861
1265,000000	87,965649
1264,000000	87,977185
1263,000000	87,988767
1262,000000	87,996854
1261,000000	88,013162
1260,000000	88,033993
1259,000000	88,038398
1258,000000	88,044535
1257,000000	88,053031
1256,000000	88,069992
1255,000000	88,079825
1254,000000	88,082684
1253,000000	88,148438
1252,000000	88,228799
1251,000000	88,262612
1250,000000	88,261059
1249,000000	88,239566
1248,000000	88,232590
1247,000000	88,229311
1246,000000	88,296265
1245,000000	88,389748
1244,000000	88,413251
1243,000000	88,391590
1242,000000	88,354051
1241,000000	88,362297
1240,000000	88,371094
1239,000000	88,388212
1238,000000	88,419599
1237,000000	88,447130
1236,000000	88,447318
1235,000000	88,447526
1234,000000	88,457141
1233,000000	88,480707
1232,000000	88,534910
1231,000000	88,581641
1230,000000	88,566104
1229,000000	88,545531
1228,000000	88,554892
1227,000000	88,635833
1226,000000	88,699376
1225,000000	88,701583
1224,000000	88,702926
1223,000000	88,673411
1222,000000	88,650348
1221,000000	88,649345
1220,000000	88,661789
1219,000000	88,671601
1218,000000	88,688238
1217,000000	88,699559
1216,000000	88,716220
1215,000000	88,723627
1214,000000	88,733289
1213,000000	88,796550
1212,000000	88,829305
1211,000000	88,820633
1210,000000	88,778625
1209,000000	88,743666
1208,000000	88,809072
1207,000000	88,778356
1206,000000	88,767122
1205,000000	88,775827
1204,000000	88,840381
1203,000000	88,880042
1202,000000	88,817284
1201,000000	88,783611
1200,000000	88,806392
1199,000000	88,798551
1198,000000	88,817671
1197,000000	88,799336
1196,000000	88,855112
1195,000000	88,871955
1194,000000	88,850447
1193,000000	88,838622
1192,000000	88,826860
1191,000000	88,825248
1190,000000	88,805361
1189,000000	88,785741
1188,000000	88,764405
1187,000000	88,737078
1186,000000	88,739481
1185,000000	88,725981
1184,000000	88,693257
1183,000000	88,682509
1182,000000	88,668688
1181,000000	88,630330
1180,000000	88,620909
1179,000000	88,602272
1178,000000	88,599732
1177,000000	88,567054
1176,000000	88,530032
1175,000000	88,509962
1174,000000	88,485452
1173,000000	88,475541
1172,000000	88,469320
1171,000000	88,438997
1170,000000	88,404922
1169,000000	88,377686
1168,000000	88,292055
1167,000000	88,254466
1166,000000	88,236719
1165,000000	88,206335
1164,000000	88,174877
1163,000000	88,153929
1162,000000	88,126675
1161,000000	88,082654
1160,000000	88,057496
1159,000000	88,109451
1158,000000	88,096144
1157,000000	88,068642
1156,000000	88,066206
1155,000000	87,977592
1154,000000	87,925370
1153,000000	87,890062
1152,000000	87,878295
1151,000000	87,846723
1150,000000	87,837298
1149,000000	87,880210
1148,000000	87,868420
1147,000000	87,840557
1146,000000	87,821128
1145,000000	87,708668
1144,000000	87,693338
1143,000000	87,672095
1142,000000	87,661480
1141,000000	87,608615
1140,000000	87,570430
1139,000000	87,565658
1138,000000	87,551884
1137,000000	87,503651
1136,000000	87,565937
1135,000000	87,587491
1134,000000	87,615467
1133,000000	87,506360
1132,000000	87,471026
1131,000000	87,424564
1130,000000	87,416769
1129,000000	87,409384
1128,000000	87,416338
1127,000000	87,510939
1126,000000	87,524795
1125,000000	87,502246
1124,000000	87,516494
1123,000000	87,472239
1122,000000	87,460493
1121,000000	87,361833
1120,000000	87,367252
1119,000000	87,346757
1118,000000	87,353667
1117,000000	87,326239
1116,000000	87,333711
1115,000000	87,311954
1114,000000	87,338125
1113,000000	87,322204
1112,000000	87,468800
1111,000000	87,462701
1110,000000	87,461347
1109,000000	87,464136
1108,000000	87,504940
1107,000000	87,516234
1106,000000	87,498860
1105,000000	87,493363
1104,000000	87,504818
1103,000000	87,492902
1102,000000	87,509553
1101,000000	87,529302
1100,000000	87,468084
1099,000000	87,445929
1098,000000	87,473849
1097,000000	87,474992
1096,000000	87,518587
1095,000000	87,547919
1094,000000	87,670954
1093,000000	87,671807
1092,000000	87,717707
1091,000000	87,625350
1090,000000	87,637920
1089,000000	87,647560
1088,000000	87,680156
1087,000000	87,634133
1086,000000	87,758516
1085,000000	87,779817
1084,000000	87,733121
1083,000000	87,731133
1082,000000	87,769940
1081,000000	87,765640
1080,000000	87,781016
1079,000000	87,885885
1078,000000	87,907490
1077,000000	87,803048
1076,000000	87,852274
1075,000000	87,870225
1074,000000	87,880053
1073,000000	87,881555
1072,000000	87,972483
1071,000000	87,895881
1070,000000	87,907836
1069,000000	87,909023
1068,000000	87,918070
1067,000000	87,936858
1066,000000	87,959131
1065,000000	87,969221
1064,000000	88,083462
1063,000000	87,957403
1062,000000	87,967878
1061,000000	87,980334
1060,000000	87,991599
1059,000000	87,980286
1058,000000	87,977796
1057,000000	87,946818
1056,000000	87,973493
1055,000000	87,980596
1054,000000	87,970871
1053,000000	87,962527
1052,000000	88,034871
1051,000000	87,944879
1050,000000	87,955386
1049,000000	87,963196
1048,000000	87,974009
1047,000000	88,016943
1046,000000	87,891417
1045,000000	87,863483
1044,000000	87,888343
1043,000000	87,855445
1042,000000	87,816518
1041,000000	87,800134
1040,000000	87,792634
1039,000000	87,760937
1038,000000	87,765615
1037,000000	87,761221
1036,000000	87,729995
1035,000000	87,720174
1034,000000	87,702205
1033,000000	87,654161
1032,000000	87,636947
1031,000000	87,589879
1030,000000	87,457123
1029,000000	87,498618
1028,000000	87,479990
1027,000000	87,491437
1026,000000	87,469027
1025,000000	87,441405
1024,000000	87,433748
1023,000000	87,401022
1022,000000	87,349032
1021,000000	87,332028
1020,000000	87,299253
1019,000000	87,260446
1018,000000	87,245572
1017,000000	87,172430
1016,000000	87,063284
1015,000000	87,146310
1014,000000	87,150154
1013,000000	87,098320
1012,000000	87,080273
1011,000000	87,016017
1010,000000	86,908588
1009,000000	86,987948
1008,000000	86,975771
1007,000000	86,962690
1006,000000	86,914935
1005,000000	86,779061
1004,000000	86,805716
1003,000000	86,872659
1002,000000	86,808986
1001,000000	86,726456
1000,000000	86,820512
999,000000	86,789871
998,000000	86,723815
997,000000	86,599206
996,000000	86,636320
995,000000	86,777007
994,000000	86,837016
993,000000	86,653279
992,000000	86,526613
991,000000	86,595984
990,000000	86,725141
989,000000	86,655268
988,000000	86,552653
987,000000	86,585667
986,000000	86,695017
985,000000	86,634557
984,000000	86,585217
983,000000	86,698872
982,000000	86,642861
981,000000	86,536134
980,000000	86,560524
979,000000	86,635964
978,000000	86,708078
977,000000	86,625621
976,000000	86,637314
975,000000	86,659898
974,000000	86,698873
973,000000	86,802244
972,000000	86,877651
971,000000	86,797070
970,000000	86,824556
969,000000	86,973655
968,000000	87,139110
967,000000	87,257629
966,000000	87,314288
965,000000	87,341069
964,000000	87,373611
963,000000	87,405558
962,000000	87,415808
961,000000	87,409656
960,000000	87,431823
959,000000	87,462936
958,000000	87,483040
957,000000	87,494759
956,000000	87,501220
955,000000	87,506789
954,000000	87,532935
953,000000	87,545631
952,000000	87,543935
951,000000	87,543840
950,000000	87,561420
949,000000	87,551875
948,000000	87,550266
947,000000	87,561729
946,000000	87,570351
945,000000	87,570674
944,000000	87,565053
943,000000	87,563907
942,000000	87,579117
941,000000	87,593289
940,000000	87,583359
939,000000	87,567823
938,000000	87,568892
937,000000	87,566855
936,000000	87,567117
935,000000	87,553844
934,000000	87,535232
933,000000	87,533424
932,000000	87,536985
931,000000	87,538109
930,000000	87,519283
929,000000	87,485405
928,000000	87,477232
927,000000	87,470092
926,000000	87,451534
925,000000	87,430804
924,000000	87,382605
923,000000	87,344381
922,000000	87,340326
921,000000	87,330974
920,000000	87,313422
919,000000	87,314030
918,000000	87,287551
917,000000	87,269276
916,000000	87,247795
915,000000	87,234929
914,000000	87,228039
913,000000	87,188693
912,000000	87,132103
911,000000	87,121705
910,000000	87,118625
909,000000	87,122612
908,000000	87,091097
907,000000	87,058113
906,000000	87,031949
905,000000	87,031044
904,000000	87,022447
903,000000	87,021987
902,000000	87,004711
901,000000	86,986385
900,000000	86,967951
899,000000	86,932901
898,000000	86,874705
897,000000	86,874391
896,000000	86,909151
895,000000	86,930939
894,000000	86,893746
893,000000	86,873464
892,000000	86,857317
891,000000	86,898582
890,000000	86,905643
889,000000	86,860670
888,000000	86,857480
887,000000	86,846868
886,000000	86,783325
885,000000	86,814421
884,000000	86,818416
883,000000	86,857555
882,000000	86,806587
881,000000	86,864953
880,000000	86,904893
879,000000	86,898423
878,000000	86,898296
877,000000	86,929200
876,000000	86,795299
875,000000	86,840163
874,000000	86,883604
873,000000	86,841675
872,000000	86,809664
871,000000	86,919917
870,000000	86,858974
869,000000	86,842945
868,000000	86,849307
867,000000	86,947403
866,000000	86,952112
865,000000	86,941576
864,000000	86,985684
863,000000	87,061320
862,000000	86,893117
861,000000	86,621046
860,000000	86,207173
859,000000	86,931252
858,000000	86,716004
857,000000	87,197107
856,000000	87,235230
855,000000	86,664818
854,000000	86,656243
853,000000	86,953212
852,000000	86,730605
851,000000	87,407341
850,000000	87,510571
849,000000	86,762764
848,000000	86,467775
847,000000	86,788045
846,000000	86,828760
845,000000	86,738927
844,000000	86,705070
843,000000	86,849894
842,000000	86,753417
841,000000	86,437094
840,000000	86,419739
839,000000	86,863418
838,000000	86,890614
837,000000	86,560119
836,000000	86,797577
835,000000	86,706793
834,000000	86,763084
833,000000	86,572792
832,000000	86,489422
831,000000	86,613651
830,000000	86,348214
829,000000	86,728702
828,000000	86,567170
827,000000	86,524334
826,000000	86,240044
825,000000	86,418562
824,000000	86,541798
823,000000	86,549447
822,000000	86,550653
821,000000	86,343069
820,000000	86,335185
819,000000	86,444478
818,000000	86,282267
817,000000	86,408387
816,000000	86,261853
815,000000	86,303456
814,000000	86,299971
813,000000	86,183752
812,000000	86,480970
811,000000	86,375265
810,000000	86,216919
809,000000	86,535823
808,000000	86,524770
807,000000	86,569459
806,000000	86,449514
805,000000	86,476327
804,000000	86,735136
803,000000	86,526124
802,000000	86,593727
801,000000	86,592799
800,000000	86,616361
799,000000	86,554034
798,000000	86,579521
797,000000	86,441358
796,000000	86,525183
795,000000	86,402200
794,000000	86,609341
793,000000	86,566039
792,000000	86,535513
791,000000	86,689822
790,000000	86,680082
789,000000	86,691745
788,000000	86,575521
787,000000	86,672068
786,000000	86,728461
785,000000	86,702003
784,000000	86,553126
783,000000	86,504944
782,000000	86,401545
781,000000	86,493369
780,000000	86,400762
779,000000	86,699420
778,000000	86,496633
777,000000	86,682486
776,000000	86,537177
775,000000	86,392559
774,000000	86,591808
773,000000	86,713572
772,000000	86,494196
771,000000	86,500815
770,000000	86,367769
769,000000	86,538315
768,000000	86,409271
767,000000	86,578681
766,000000	86,458581
765,000000	86,538405
764,000000	86,313472
763,000000	86,349494
762,000000	86,164563
761,000000	86,285770
760,000000	86,243955
759,000000	86,404094
758,000000	86,262440
757,000000	86,365051
756,000000	86,229731
755,000000	86,314625
754,000000	86,354961
753,000000	86,284786
752,000000	86,275453
751,000000	86,133012
750,000000	86,298818
749,000000	86,208803
748,000000	86,354838
747,000000	86,271120
746,000000	86,374459
745,000000	86,321278
744,000000	86,354412
743,000000	86,165337
742,000000	86,146874
741,000000	86,092862
740,000000	86,266743
739,000000	86,166561
738,000000	86,288383
737,000000	86,278109
736,000000	86,338934
735,000000	86,208610
734,000000	86,169308
733,000000	86,180320
732,000000	86,190416
731,000000	86,268077
730,000000	86,168762
729,000000	86,233799
728,000000	86,199656
727,000000	86,268773
726,000000	86,287540
725,000000	86,065854
724,000000	86,202735
723,000000	86,214097
722,000000	86,243574
721,000000	86,278142
720,000000	86,206862
719,000000	86,135094
718,000000	86,180501
717,000000	86,141280
716,000000	86,201886
715,000000	86,112698
714,000000	86,074969
713,000000	86,137676
712,000000	86,174093
711,000000	86,088380
710,000000	86,133026
709,000000	86,084610
708,000000	86,028590
707,000000	86,086982
706,000000	85,974242
705,000000	86,068728
704,000000	86,052252
703,000000	86,101227
702,000000	86,080913
701,000000	86,041990
700,000000	85,998310
699,000000	86,001691
698,000000	85,992212
697,000000	86,023168
696,000000	85,973338
695,000000	86,034116
694,000000	86,018531
693,000000	85,920378
692,000000	85,959570
691,000000	85,969098
690,000000	85,889053
689,000000	85,864009
688,000000	85,877158
687,000000	85,871554
686,000000	85,873043
685,000000	85,864797
684,000000	85,905538
683,000000	85,968899
682,000000	85,895260
681,000000	85,869974
680,000000	85,874489
679,000000	85,877723
678,000000	85,836726
677,000000	85,855819
676,000000	85,802337
675,000000	85,836451
674,000000	85,792466
673,000000	85,788716
672,000000	85,857669
671,000000	85,847966
670,000000	85,795521
669,000000	85,805954
668,000000	85,807159
667,000000	85,697801
666,000000	85,750360
665,000000	85,791667
664,000000	85,725973
663,000000	85,731148
662,000000	85,755919
661,000000	85,650279
660,000000	85,702669
659,000000	85,762800
658,000000	85,710938
657,000000	85,672883
656,000000	85,587793
655,000000	85,619482
654,000000	85,689904
653,000000	85,636101
652,000000	85,552213
651,000000	85,572645
650,000000	85,611282
649,000000	85,585180
648,000000	85,608338
647,000000	85,613427
646,000000	85,631810
645,000000	85,629303
644,000000	85,581052
643,000000	85,571005
642,000000	85,587886
641,000000	85,538741
640,000000	85,493051
639,000000	85,533308
638,000000	85,573181
637,000000	85,572573
636,000000	85,562746
635,000000	85,555367
634,000000	85,515711
633,000000	85,519479
632,000000	85,539244
631,000000	85,503833
630,000000	85,481738
629,000000	85,480873
628,000000	85,497837
627,000000	85,435889
626,000000	85,383407
625,000000	85,372003
624,000000	85,357530
623,000000	85,354401
622,000000	85,309186
621,000000	85,266398
620,000000	85,297266
619,000000	85,329867
618,000000	85,355186
617,000000	85,356284
616,000000	85,289564
615,000000	85,265751
614,000000	85,266735
613,000000	85,313430
612,000000	85,291684
611,000000	85,305075
610,000000	85,313713
609,000000	85,288822
608,000000	85,250788
607,000000	85,221491
606,000000	85,264437
605,000000	85,273925
604,000000	85,245106
603,000000	85,230040
602,000000	85,211890
601,000000	85,167286
600,000000	85,172135
599,000000	85,143371
598,000000	85,126300
597,000000	85,164379
596,000000	85,176449
595,000000	85,089068
594,000000	85,066548
593,000000	85,070293
592,000000	85,031024
591,000000	85,027897
590,000000	84,995034
589,000000	84,958872
588,000000	84,994657
587,000000	84,996951
586,000000	84,967593
585,000000	84,924014
584,000000	84,920139
583,000000	84,936031
582,000000	84,895205
581,000000	84,921462
580,000000	84,920298
579,000000	84,881798
578,000000	84,873343
577,000000	84,823647
576,000000	84,819110
575,000000	84,859279
574,000000	84,838660
573,000000	84,798481
572,000000	84,836282
571,000000	84,853951
570,000000	84,769660
569,000000	84,764064
568,000000	84,716719
567,000000	84,700691
566,000000	84,724761
565,000000	84,737063
564,000000	84,710504
563,000000	84,645587
562,000000	84,710756
561,000000	84,862192
560,000000	84,892321
559,000000	84,843068
558,000000	84,766650
557,000000	84,732420
556,000000	84,703911
555,000000	84,689264
554,000000	84,704432
553,000000	84,696637
552,000000	84,605992
551,000000	84,634184
550,000000	84,687113
549,000000	84,656553
548,000000	84,549973
547,000000	84,596330
546,000000	84,557307
545,000000	84,512551
544,000000	84,531112
543,000000	84,552393
542,000000	84,586370
541,000000	84,632017
540,000000	84,557637
539,000000	84,545777
538,000000	84,526169
537,000000	84,544372
536,000000	84,471093
535,000000	84,479657
534,000000	84,462308
533,000000	84,431429
532,000000	84,405207
531,000000	84,417800
530,000000	84,354650
529,000000	84,332391
528,000000	84,298978
527,000000	84,267815
526,000000	84,255408
525,000000	84,219093
524,000000	84,205243
523,000000	84,242640
522,000000	84,163918
521,000000	84,184906
520,000000	84,142625
519,000000	84,110827
518,000000	84,024607
517,000000	83,943698
516,000000	83,920883
515,000000	83,909961
514,000000	83,933898
513,000000	83,844735
512,000000	83,816590
511,000000	83,843819
510,000000	83,755409
509,000000	83,695582
508,000000	83,703593
507,000000	83,622597
506,000000	83,626757
505,000000	83,630144
504,000000	83,648251
503,000000	83,580361
502,000000	83,586864
501,000000	83,550346
500,000000	83,605176
499,000000	83,561448
498,000000	83,553994
497,000000	83,593923
496,000000	83,620518
495,000000	83,543432
494,000000	83,671863
493,000000	83,621117
492,000000	83,693022
491,000000	83,640037
490,000000	83,723419
489,000000	83,707730
488,000000	83,669655
487,000000	83,712347
486,000000	83,701461
485,000000	83,693814
484,000000	83,803330
483,000000	83,713539
482,000000	83,787378
481,000000	83,701333
480,000000	83,697155
479,000000	83,530174
478,000000	83,423241
477,000000	83,415582
476,000000	83,324229
475,000000	83,380919
474,000000	83,300311
473,000000	83,263971
472,000000	83,211937
471,000000	83,166378
470,000000	83,074383
469,000000	83,011293
468,000000	83,044576
467,000000	82,940160
466,000000	82,830611
465,000000	82,758943
464,000000	82,760296
463,000000	82,621821
462,000000	82,641619
461,000000	82,545009
460,000000	82,452257
459,000000	82,539634
458,000000	82,509242
457,000000	82,499055
456,000000	82,465850
455,000000	82,441468
454,000000	82,375106
453,000000	82,279956
452,000000	82,257437
451,000000	82,223316
450,000000	82,143621
449,000000	82,098103
448,000000	82,048408
447,000000	81,963035
446,000000	81,871089
445,000000	81,893791
444,000000	81,827636
443,000000	81,745748
442,000000	81,574655
441,000000	81,484935
440,000000	81,315307
439,000000	81,195422
438,000000	81,059559
437,000000	80,926012
436,000000	80,761041
435,000000	80,552133
434,000000	80,361432
433,000000	80,114452
432,000000	79,954400
431,000000	79,675140
430,000000	79,321812
429,000000	78,969318
428,000000	78,591845
427,000000	78,109085
426,000000	77,444384
425,000000	76,759806
424,000000	75,855134
423,000000	74,877893
422,000000	73,813317
421,000000	72,561774
420,000000	71,102327
419,000000	69,649602
418,000000	68,120849
417,000000	66,608268
416,000000	65,095736
415,000000	63,791399
414,000000	62,465304
413,000000	61,392696
412,000000	60,430194
411,000000	59,665048
410,000000	59,126587
409,000000	58,666325
408,000000	58,378476
407,000000	58,197851
406,000000	58,171048
405,000000	58,103343
404,000000	58,134488
403,000000	58,292005
402,000000	58,474541
401,000000	58,615511
400,000000	58,805601
399,000000	59,011946
398,000000	59,252264
397,000000	59,444796
396,000000	59,579087
395,000000	59,732602
394,000000	59,916980
393,000000	60,163226
392,000000	60,356668
391,000000	60,484385
390,000000	60,565823
389,000000	60,756878
388,000000	60,950878
387,000000	61,059105
386,000000	61,195946
385,000000	61,319992
384,000000	61,553316
383,000000	61,731421
382,000000	61,895344
381,000000	62,175107
380,000000	62,355810
379,000000	62,677838
378,000000	63,082464
377,000000	63,712522
376,000000	63,926135
375,000000	63,882686
374,000000	64,340333
373,000000	65,643828
372,000000	66,095173
371,000000	66,452342
370,000000	67,431750
369,000000	68,347142
368,000000	69,372336
367,000000	70,298799
366,000000	71,014583
365,000000	71,735485
364,000000	72,521234
363,000000	73,068197
362,000000	73,578218
361,000000	73,857134
360,000000	74,485226
359,000000	75,285472
358,000000	76,044022
357,000000	76,154545
356,000000	76,693261
355,000000	77,443526
354,000000	77,524079
353,000000	78,114849
352,000000	78,708620
351,000000	79,420628
350,000000	79,778208
349,000000	80,120306
348,000000	80,855559
347,000000	80,825453
346,000000	80,776107
345,000000	81,042377
344,000000	81,344913
343,000000	81,437789
342,000000	81,711417
341,000000	81,890000
340,000000	81,560579
339,000000	81,402456
338,000000	81,257808
337,000000	80,901571
336,000000	80,813465
335,000000	80,731373
334,000000	80,893720
333,000000	80,657906
332,000000	80,079858
331,000000	80,052251
330,000000	80,065223
329,000000	80,094431
328,000000	79,666352
327,000000	79,280788
326,000000	79,382696
325,000000	79,431288
324,000000	79,584087
323,000000	79,063592
322,000000	78,319533
321,000000	78,247659
320,000000	78,216605
319,000000	78,647882
318,000000	79,081973
317,000000	79,055776
316,000000	79,008959
315,000000	79,021658
314,000000	79,034606
313,000000	79,066099
312,000000	79,114158
311,000000	79,151998
310,000000	79,243949
309,000000	79,528509
308,000000	79,854646
307,000000	80,491833
306,000000	81,225875
305,000000	81,952575
304,000000	82,667662
303,000000	82,912982
302,000000	83,233299
301,000000	83,549789
300,000000	84,002600
299,000000	84,376590
298,000000	84,831977
297,000000	85,455411
296,000000	86,032049
295,000000	86,622168
294,000000	87,300791
293,000000	88,155818
292,000000	88,987669
291,000000	89,823509
290,000000	90,720666
289,000000	91,794514
288,000000	92,774593
287,000000	93,559437
286,000000	94,456660
285,000000	95,242872
284,000000	96,007595
283,000000	96,683267
282,000000	97,245662
281,000000	97,757755
280,000000	98,169747
279,000000	98,733439
278,000000	99,048843
277,000000	99,481205
276,000000	99,731829
275,000000	100,007910
274,000000	100,234391
273,000000	100,368771
272,000000	100,458102
271,000000	100,522121
270,000000	100,745379
269,000000	100,848224
268,000000	100,772061
267,000000	100,928482
266,000000	101,230607
265,000000	101,491884
264,000000	101,930265
263,000000	102,644800
262,000000	103,357245
261,000000	103,773153
260,000000	104,575733
259,000000	105,504838
258,000000	106,334182
257,000000	107,375440
256,000000	108,639405
255,000000	110,070011
254,000000	111,280818
253,000000	112,692217
252,000000	114,170372
251,000000	116,260189
250,000000	118,086100
249,000000	119,635782
248,000000	121,115816
247,000000	122,250212
246,000000	123,753271
245,000000	125,304377
244,000000	127,250703
243,000000	129,217337
242,000000	131,507029
241,000000	133,584962
240,000000	135,529341
239,000000	137,857867
238,000000	140,283997
237,000000	143,440865
236,000000	146,812202
235,000000	150,661548
234,000000	153,358666
233,000000	158,197693
232,000000	161,867611
231,000000	164,713936
230,000000	167,593275
229,000000	171,021336
228,000000	174,103322
227,000000	177,520009
226,000000	180,872270
225,000000	184,363007
224,000000	187,195073
223,000000	190,371075
222,000000	193,663375
221,000000	196,373057
220,000000	198,631754
219,000000	201,469269
218,000000	204,318743
217,000000	207,390294
216,000000	210,563986
215,000000	212,934892
214,000000	215,861876
213,000000	219,392640
212,000000	223,229328
211,000000	228,250680
210,000000	233,013197
209,000000	238,742591
208,000000	245,131522
207,000000	252,551379
206,000000	260,436965
205,000000	268,616740
204,000000	279,163428
203,000000	290,324588
202,000000	301,098314
201,000000	314,816725
200,000000	328,575433
