PE UV       SUBTECH     SPECTRUM    ASCII       PEDS        4.00        
   -1
sampleB_T+V.Sample.asc
22/01/26
15:55:10.00
22/01/26
15:55:10.00
Administrator

200,000000
1
Lambda 1050
1050L1808311
PerkinElmer UV WinLab 6.4.0.973 / 2.02.11 Lambda 900 UV/VIS/NIR, May 23 2018 11:23:04

0
0
3350/servo 860,8/2
0
0
UV/VIS
1
1
1
CommonBeamDepol,RBeamAtt,SBeamAtt,60mm sphere
0
0
0
0
Program
Program
3350/servo 860,8/2
3350/0,2 860,8/0,2
3350/0,2 860,8/0,2
0
1
 
 
 
0
 
860,8
319,2
860,8
Front
100
on
S:100 R:100
 
0
0
0
 
0
 
 
 
0
 
 
0
0
0
0
0
 
 
 
 
0
0


0
0
#HDR
-1
-1
#GR
nm
%T
1.0
0.0
2000,000000
-1,000000
1801
8
312,839237
52,880898
#DATA
2000,000000	80,181291
1999,000000	80,176739
1998,000000	80,140164
1997,000000	80,192785
1996,000000	80,167710
1995,000000	80,172017
1994,000000	80,153752
1993,000000	80,242847
1992,000000	80,200747
1991,000000	80,223181
1990,000000	80,274579
1989,000000	80,238111
1988,000000	80,350821
1987,000000	80,323099
1986,000000	80,303492
1985,000000	80,324704
1984,000000	80,336602
1983,000000	80,331380
1982,000000	80,309205
1981,000000	80,427401
1980,000000	80,456787
1979,000000	80,573310
1978,000000	80,551111
1977,000000	80,561423
1976,000000	80,553692
1975,000000	80,445642
1974,000000	80,402596
1973,000000	80,467672
1972,000000	80,402468
1971,000000	80,459360
1970,000000	80,505844
1969,000000	80,569899
1968,000000	80,556262
1967,000000	80,568509
1966,000000	80,555375
1965,000000	80,590216
1964,000000	80,597502
1963,000000	80,641112
1962,000000	80,651053
1961,000000	80,652511
1960,000000	80,652597
1959,000000	80,664958
1958,000000	80,676243
1957,000000	80,771053
1956,000000	80,688220
1955,000000	80,773922
1954,000000	80,761482
1953,000000	80,784616
1952,000000	80,761528
1951,000000	80,775801
1950,000000	80,836382
1949,000000	80,876116
1948,000000	80,839808
1947,000000	80,898334
1946,000000	80,863528
1945,000000	80,924513
1944,000000	80,903910
1943,000000	80,953743
1942,000000	80,971640
1941,000000	81,003931
1940,000000	81,026283
1939,000000	81,059813
1938,000000	81,070163
1937,000000	81,075282
1936,000000	81,043775
1935,000000	81,126815
1934,000000	81,096054
1933,000000	81,148415
1932,000000	81,155147
1931,000000	81,170068
1930,000000	81,168578
1929,000000	81,177366
1928,000000	81,145292
1927,000000	81,204858
1926,000000	81,239489
1925,000000	81,289303
1924,000000	81,309076
1923,000000	81,316702
1922,000000	81,257569
1921,000000	81,309561
1920,000000	81,269362
1919,000000	81,308674
1918,000000	81,341683
1917,000000	81,368828
1916,000000	81,348543
1915,000000	81,385975
1914,000000	81,331982
1913,000000	81,396632
1912,000000	81,388341
1911,000000	81,474210
1910,000000	81,466386
1909,000000	81,494435
1908,000000	81,594933
1907,000000	81,653712
1906,000000	81,627110
1905,000000	81,579905
1904,000000	81,590052
1903,000000	81,632569
1902,000000	81,595069
1901,000000	81,575177
1900,000000	81,505633
1899,000000	81,466167
1898,000000	81,472477
1897,000000	81,469266
1896,000000	81,463711
1895,000000	81,502000
1894,000000	81,487997
1893,000000	81,487706
1892,000000	81,477419
1891,000000	81,426915
1890,000000	81,416581
1889,000000	81,443405
1888,000000	81,432634
1887,000000	81,446572
1886,000000	81,452924
1885,000000	81,448100
1884,000000	81,411946
1883,000000	81,412443
1882,000000	81,408930
1881,000000	81,401979
1880,000000	81,352394
1879,000000	81,339541
1878,000000	81,367275
1877,000000	81,375458
1876,000000	81,366586
1875,000000	81,363008
1874,000000	81,330325
1873,000000	81,319208
1872,000000	81,290248
1871,000000	81,296270
1870,000000	81,274914
1869,000000	81,295646
1868,000000	81,299821
1867,000000	81,298716
1866,000000	81,327924
1865,000000	81,329246
1864,000000	81,338792
1863,000000	81,338630
1862,000000	81,319270
1861,000000	81,314231
1860,000000	81,306074
1859,000000	81,302895
1858,000000	81,303761
1857,000000	81,286903
1856,000000	81,267966
1855,000000	81,263748
1854,000000	81,247649
1853,000000	81,224886
1852,000000	81,218166
1851,000000	81,209162
1850,000000	81,182218
1849,000000	81,172532
1848,000000	81,167635
1847,000000	81,146650
1846,000000	81,140201
1845,000000	81,129002
1844,000000	81,134165
1843,000000	81,116941
1842,000000	81,079641
1841,000000	81,072118
1840,000000	81,075922
1839,000000	81,053866
1838,000000	81,008635
1837,000000	80,970791
1836,000000	80,991979
1835,000000	80,975111
1834,000000	80,956175
1833,000000	80,952999
1832,000000	80,956299
1831,000000	80,935251
1830,000000	80,909399
1829,000000	80,899678
1828,000000	80,888620
1827,000000	80,854794
1826,000000	80,814193
1825,000000	80,785021
1824,000000	80,809789
1823,000000	80,805655
1822,000000	80,772344
1821,000000	80,630065
1820,000000	80,546011
1819,000000	80,482689
1818,000000	80,446298
1817,000000	80,444056
1816,000000	80,411403
1815,000000	80,389900
1814,000000	80,398877
1813,000000	80,366181
1812,000000	80,345339
1811,000000	80,314734
1810,000000	80,307419
1809,000000	80,284611
1808,000000	80,272051
1807,000000	80,252036
1806,000000	80,236048
1805,000000	80,192150
1804,000000	80,174810
1803,000000	80,153394
1802,000000	80,141639
1801,000000	80,113238
1800,000000	80,080108
1799,000000	80,063507
1798,000000	80,069424
1797,000000	80,031560
1796,000000	80,015366
1795,000000	79,998599
1794,000000	79,968823
1793,000000	79,935754
1792,000000	79,959375
1791,000000	79,923368
1790,000000	79,903703
1789,000000	79,864798
1788,000000	79,875343
1787,000000	79,830369
1786,000000	79,803993
1785,000000	79,771679
1784,000000	79,750743
1783,000000	79,692402
1782,000000	79,703971
1781,000000	79,674771
1780,000000	79,686944
1779,000000	79,655090
1778,000000	79,644016
1777,000000	79,602672
1776,000000	79,602325
1775,000000	79,548682
1774,000000	79,566874
1773,000000	79,530751
1772,000000	79,505871
1771,000000	79,481259
1770,000000	79,492282
1769,000000	79,438826
1768,000000	79,451830
1767,000000	79,422364
1766,000000	79,407196
1765,000000	79,384857
1764,000000	79,396119
1763,000000	79,358788
1762,000000	79,390666
1761,000000	79,351009
1760,000000	79,347684
1759,000000	79,305197
1758,000000	79,284416
1757,000000	79,261703
1756,000000	79,242502
1755,000000	79,208429
1754,000000	79,220662
1753,000000	79,184132
1752,000000	79,199353
1751,000000	79,150954
1750,000000	79,160672
1749,000000	79,102310
1748,000000	79,099824
1747,000000	79,076097
1746,000000	79,077128
1745,000000	79,063577
1744,000000	79,066865
1743,000000	79,016763
1742,000000	79,039149
1741,000000	78,991551
1740,000000	78,989254
1739,000000	78,963278
1738,000000	78,972921
1737,000000	78,943428
1736,000000	78,936472
1735,000000	78,923781
1734,000000	78,905726
1733,000000	78,949783
1732,000000	78,916968
1731,000000	78,868879
1730,000000	78,861968
1729,000000	78,853928
1728,000000	78,836535
1727,000000	78,815546
1726,000000	78,844766
1725,000000	78,816780
1724,000000	78,832336
1723,000000	78,806957
1722,000000	78,793154
1721,000000	78,778787
1720,000000	78,802856
1719,000000	78,739740
1718,000000	78,784849
1717,000000	78,758533
1716,000000	78,774651
1715,000000	78,711099
1714,000000	78,738697
1713,000000	78,682847
1712,000000	78,713891
1711,000000	78,657930
1710,000000	78,691920
1709,000000	78,641192
1708,000000	78,623085
1707,000000	78,594376
1706,000000	78,625120
1705,000000	78,607559
1704,000000	78,611558
1703,000000	78,533983
1702,000000	78,539498
1701,000000	78,513811
1700,000000	78,531851
1699,000000	78,472117
1698,000000	78,478442
1697,000000	78,476003
1696,000000	78,475429
1695,000000	78,426794
1694,000000	78,482585
1693,000000	78,408110
1692,000000	78,417280
1691,000000	78,376456
1690,000000	78,388205
1689,000000	78,346575
1688,000000	78,408197
1687,000000	78,363600
1686,000000	78,395595
1685,000000	78,352463
1684,000000	78,369636
1683,000000	78,326245
1682,000000	78,355999
1681,000000	78,344130
1680,000000	78,371526
1679,000000	78,357480
1678,000000	78,387692
1677,000000	78,360050
1676,000000	78,393234
1675,000000	78,386716
1674,000000	78,411606
1673,000000	78,433385
1672,000000	78,468143
1671,000000	78,471352
1670,000000	78,493806
1669,000000	78,486681
1668,000000	78,523877
1667,000000	78,522595
1666,000000	78,548358
1665,000000	78,574031
1664,000000	78,604504
1663,000000	78,600104
1662,000000	78,656058
1661,000000	78,644975
1660,000000	78,670649
1659,000000	78,656038
1658,000000	78,711334
1657,000000	78,718251
1656,000000	78,731212
1655,000000	78,738975
1654,000000	78,791366
1653,000000	78,777390
1652,000000	78,795985
1651,000000	78,766947
1650,000000	78,797676
1649,000000	78,796425
1648,000000	78,824173
1647,000000	78,805278
1646,000000	78,828608
1645,000000	78,819263
1644,000000	78,872208
1643,000000	78,902655
1642,000000	78,893963
1641,000000	78,892767
1640,000000	78,955172
1639,000000	78,950914
1638,000000	78,967139
1637,000000	78,984410
1636,000000	78,991418
1635,000000	78,995171
1634,000000	79,029171
1633,000000	79,022367
1632,000000	79,054422
1631,000000	79,060276
1630,000000	79,081602
1629,000000	79,076992
1628,000000	79,055317
1627,000000	78,926044
1626,000000	78,684575
1625,000000	78,551553
1624,000000	78,578767
1623,000000	78,573468
1622,000000	78,603099
1621,000000	78,610358
1620,000000	78,628416
1619,000000	78,632455
1618,000000	78,645550
1617,000000	78,656783
1616,000000	78,702369
1615,000000	78,662007
1614,000000	78,586338
1613,000000	78,707331
1612,000000	78,871426
1611,000000	78,990841
1610,000000	79,014990
1609,000000	79,007606
1608,000000	78,969720
1607,000000	78,825239
1606,000000	78,837989
1605,000000	78,854027
1604,000000	78,871840
1603,000000	78,926306
1602,000000	79,066160
1601,000000	79,003260
1600,000000	78,883912
1599,000000	78,903748
1598,000000	78,909883
1597,000000	78,972503
1596,000000	79,118912
1595,000000	79,055274
1594,000000	78,940696
1593,000000	78,953784
1592,000000	78,968563
1591,000000	79,031783
1590,000000	79,178988
1589,000000	79,091133
1588,000000	78,976150
1587,000000	78,984680
1586,000000	79,066482
1585,000000	79,172850
1584,000000	79,102265
1583,000000	78,996214
1582,000000	79,071446
1581,000000	79,190759
1580,000000	79,092024
1579,000000	78,970703
1578,000000	79,080806
1577,000000	79,174783
1576,000000	79,162582
1575,000000	79,071013
1574,000000	78,942908
1573,000000	79,010517
1572,000000	79,131469
1571,000000	79,049667
1570,000000	79,018078
1569,000000	79,132714
1568,000000	79,124028
1567,000000	79,026329
1566,000000	78,902248
1565,000000	78,985382
1564,000000	79,093724
1563,000000	79,087292
1562,000000	79,001553
1561,000000	78,894551
1560,000000	78,965409
1559,000000	79,038580
1558,000000	79,010043
1557,000000	79,008834
1556,000000	78,924652
1555,000000	78,815357
1554,000000	78,805205
1553,000000	78,863061
1552,000000	78,945389
1551,000000	78,932830
1550,000000	78,915351
1549,000000	78,900729
1548,000000	78,805658
1547,000000	78,708393
1546,000000	78,685935
1545,000000	78,665028
1544,000000	78,728661
1543,000000	78,790997
1542,000000	78,770947
1541,000000	78,753314
1540,000000	78,737787
1539,000000	78,723161
1538,000000	78,684870
1537,000000	78,648122
1536,000000	78,621071
1535,000000	78,590058
1534,000000	78,481569
1533,000000	78,381524
1532,000000	78,336709
1531,000000	78,316836
1530,000000	78,399784
1529,000000	78,449012
1528,000000	78,415792
1527,000000	78,384419
1526,000000	78,347420
1525,000000	78,336007
1524,000000	78,316921
1523,000000	78,282041
1522,000000	78,143307
1521,000000	78,043662
1520,000000	78,106372
1519,000000	78,149984
1518,000000	78,111937
1517,000000	78,087533
1516,000000	78,055263
1515,000000	77,928606
1514,000000	77,821798
1513,000000	77,877973
1512,000000	77,914507
1511,000000	77,900320
1510,000000	77,867599
1509,000000	77,743644
1508,000000	77,748383
1507,000000	77,774401
1506,000000	77,735083
1505,000000	77,713839
1504,000000	77,683669
1503,000000	77,543167
1502,000000	77,536062
1501,000000	77,580693
1500,000000	77,565700
1499,000000	77,547162
1498,000000	77,504774
1497,000000	77,365742
1496,000000	77,384441
1495,000000	77,425584
1494,000000	77,390870
1493,000000	77,364989
1492,000000	77,332300
1491,000000	77,299834
1490,000000	77,255057
1489,000000	77,122757
1488,000000	77,058998
1487,000000	77,144371
1486,000000	77,150634
1485,000000	77,129954
1484,000000	77,102063
1483,000000	77,080631
1482,000000	77,045604
1481,000000	77,022894
1480,000000	76,979201
1479,000000	76,968064
1478,000000	76,931990
1477,000000	76,914770
1476,000000	76,872623
1475,000000	76,836647
1474,000000	76,838204
1473,000000	76,814299
1472,000000	76,772991
1471,000000	76,748160
1470,000000	76,719301
1469,000000	76,711370
1468,000000	76,674635
1467,000000	76,535686
1466,000000	76,563351
1465,000000	76,603759
1464,000000	76,579628
1463,000000	76,561037
1462,000000	76,549312
1461,000000	76,515715
1460,000000	76,378690
1459,000000	76,466494
1458,000000	76,443831
1457,000000	76,443194
1456,000000	76,425236
1455,000000	76,429592
1454,000000	76,394823
1453,000000	76,381602
1452,000000	76,366746
1451,000000	76,281586
1450,000000	76,221189
1449,000000	76,305239
1448,000000	76,331831
1447,000000	76,322021
1446,000000	76,289656
1445,000000	76,296320
1444,000000	76,272876
1443,000000	76,302073
1442,000000	76,247745
1441,000000	76,259965
1440,000000	76,241044
1439,000000	76,230132
1438,000000	76,241639
1437,000000	76,245582
1436,000000	76,216977
1435,000000	76,220605
1434,000000	76,202959
1433,000000	76,216210
1432,000000	76,199340
1431,000000	76,204296
1430,000000	76,196167
1429,000000	76,222958
1428,000000	76,225884
1427,000000	76,233197
1426,000000	76,210673
1425,000000	76,236146
1424,000000	76,202171
1423,000000	76,232950
1422,000000	76,226193
1421,000000	76,246615
1420,000000	76,168565
1419,000000	76,259973
1418,000000	76,245696
1417,000000	76,167962
1416,000000	76,257056
1415,000000	76,289208
1414,000000	76,283830
1413,000000	76,175238
1412,000000	76,141428
1411,000000	76,150098
1410,000000	76,125436
1409,000000	76,301456
1408,000000	76,290982
1407,000000	76,178876
1406,000000	76,321468
1405,000000	76,329869
1404,000000	76,326645
1403,000000	76,231691
1402,000000	76,206064
1401,000000	76,206959
1400,000000	76,205905
1399,000000	76,383317
1398,000000	76,395284
1397,000000	76,438920
1396,000000	76,418836
1395,000000	76,474797
1394,000000	76,465709
1393,000000	76,463212
1392,000000	76,449497
1391,000000	76,472406
1390,000000	76,474884
1389,000000	76,485938
1388,000000	76,468673
1387,000000	76,495027
1386,000000	76,499108
1385,000000	76,516751
1384,000000	76,517660
1383,000000	76,558308
1382,000000	76,552326
1381,000000	76,580282
1380,000000	76,596347
1379,000000	76,488004
1378,000000	76,469568
1377,000000	76,465357
1376,000000	76,614514
1375,000000	76,625245
1374,000000	76,630673
1373,000000	76,627763
1372,000000	76,588428
1371,000000	76,616960
1370,000000	76,449134
1369,000000	76,480759
1368,000000	76,430257
1367,000000	76,431202
1366,000000	76,422927
1365,000000	76,459159
1364,000000	76,439672
1363,000000	76,562800
1362,000000	76,539032
1361,000000	76,547601
1360,000000	76,505259
1359,000000	76,526187
1358,000000	76,514083
1357,000000	76,538609
1356,000000	76,488535
1355,000000	76,494548
1354,000000	76,481863
1353,000000	76,516534
1352,000000	76,460849
1351,000000	76,473275
1350,000000	76,472843
1349,000000	76,427481
1348,000000	76,430682
1347,000000	76,443118
1346,000000	76,433231
1345,000000	76,502513
1344,000000	76,399960
1343,000000	76,395711
1342,000000	76,352354
1341,000000	76,359402
1340,000000	76,399846
1339,000000	76,319125
1338,000000	76,307513
1337,000000	76,289848
1336,000000	76,276658
1335,000000	76,259000
1334,000000	76,214661
1333,000000	76,197757
1332,000000	76,154140
1331,000000	76,150279
1330,000000	76,122405
1329,000000	76,184181
1328,000000	76,147922
1327,000000	76,125235
1326,000000	76,093911
1325,000000	76,069363
1324,000000	75,998009
1323,000000	75,963250
1322,000000	75,897202
1321,000000	75,920589
1320,000000	75,849007
1319,000000	75,824968
1318,000000	75,774570
1317,000000	75,705888
1316,000000	75,656394
1315,000000	75,609693
1314,000000	75,548702
1313,000000	75,509230
1312,000000	75,455415
1311,000000	75,431844
1310,000000	75,384631
1309,000000	75,372766
1308,000000	75,329367
1307,000000	75,296630
1306,000000	75,255754
1305,000000	75,212758
1304,000000	75,162187
1303,000000	75,143226
1302,000000	75,080039
1301,000000	75,068529
1300,000000	75,009700
1299,000000	74,984966
1298,000000	74,954889
1297,000000	74,952315
1296,000000	74,856994
1295,000000	74,826018
1294,000000	74,774863
1293,000000	74,765219
1292,000000	74,758840
1291,000000	74,684466
1290,000000	74,642288
1289,000000	74,607783
1288,000000	74,556050
1287,000000	74,557068
1286,000000	74,558333
1285,000000	74,479067
1284,000000	74,452726
1283,000000	74,431745
1282,000000	74,406235
1281,000000	74,390328
1280,000000	74,364339
1279,000000	74,340402
1278,000000	74,327338
1277,000000	74,320873
1276,000000	74,277346
1275,000000	74,245630
1274,000000	74,218219
1273,000000	74,197691
1272,000000	74,165158
1271,000000	74,157717
1270,000000	74,147326
1269,000000	74,133962
1268,000000	74,092212
1267,000000	74,059364
1266,000000	74,047581
1265,000000	74,056765
1264,000000	74,069947
1263,000000	74,097533
1262,000000	74,076033
1261,000000	74,056506
1260,000000	74,046407
1259,000000	74,034880
1258,000000	74,010458
1257,000000	74,008869
1256,000000	73,991056
1255,000000	73,969111
1254,000000	73,936851
1253,000000	73,944667
1252,000000	73,942784
1251,000000	73,928885
1250,000000	73,924855
1249,000000	73,932005
1248,000000	73,988000
1247,000000	74,030484
1246,000000	74,000674
1245,000000	73,997580
1244,000000	73,997816
1243,000000	74,011083
1242,000000	74,022334
1241,000000	74,021800
1240,000000	74,031974
1239,000000	74,062316
1238,000000	74,082351
1237,000000	74,098403
1236,000000	74,101214
1235,000000	74,112965
1234,000000	74,147831
1233,000000	74,155651
1232,000000	74,182015
1231,000000	74,219822
1230,000000	74,247418
1229,000000	74,299004
1228,000000	74,299011
1227,000000	74,279741
1226,000000	74,317818
1225,000000	74,349630
1224,000000	74,376891
1223,000000	74,389360
1222,000000	74,410501
1221,000000	74,483866
1220,000000	74,551419
1219,000000	74,559449
1218,000000	74,580249
1217,000000	74,625895
1216,000000	74,663900
1215,000000	74,668306
1214,000000	74,634902
1213,000000	74,623845
1212,000000	74,657661
1211,000000	74,685738
1210,000000	74,715984
1209,000000	74,729992
1208,000000	74,755647
1207,000000	74,762295
1206,000000	74,781036
1205,000000	74,843614
1204,000000	74,843354
1203,000000	74,805515
1202,000000	74,826364
1201,000000	74,859567
1200,000000	74,893613
1199,000000	74,944223
1198,000000	74,938465
1197,000000	74,924359
1196,000000	74,944443
1195,000000	74,953965
1194,000000	74,968946
1193,000000	74,968521
1192,000000	74,988096
1191,000000	74,999694
1190,000000	75,009304
1189,000000	75,014282
1188,000000	74,987184
1187,000000	74,954076
1186,000000	74,955489
1185,000000	74,960102
1184,000000	74,952876
1183,000000	74,945203
1182,000000	74,924296
1181,000000	74,889481
1180,000000	74,897491
1179,000000	74,871863
1178,000000	74,852879
1177,000000	74,800158
1176,000000	74,818618
1175,000000	74,788768
1174,000000	74,794780
1173,000000	74,752632
1172,000000	74,719029
1171,000000	74,695278
1170,000000	74,693422
1169,000000	74,654472
1168,000000	74,634288
1167,000000	74,600342
1166,000000	74,610847
1165,000000	74,581981
1164,000000	74,570990
1163,000000	74,519057
1162,000000	74,483590
1161,000000	74,414206
1160,000000	74,370099
1159,000000	74,315657
1158,000000	74,288657
1157,000000	74,218178
1156,000000	74,181557
1155,000000	74,167743
1154,000000	74,164608
1153,000000	74,136217
1152,000000	74,093051
1151,000000	73,994246
1150,000000	73,948333
1149,000000	73,891373
1148,000000	73,871443
1147,000000	73,800479
1146,000000	73,784253
1145,000000	73,742701
1144,000000	73,746211
1143,000000	73,698287
1142,000000	73,680335
1141,000000	73,640383
1140,000000	73,549075
1139,000000	73,485010
1138,000000	73,467084
1137,000000	73,420821
1136,000000	73,410304
1135,000000	73,358823
1134,000000	73,344821
1133,000000	73,351018
1132,000000	73,338826
1131,000000	73,298556
1130,000000	73,214810
1129,000000	73,184607
1128,000000	73,162399
1127,000000	73,124957
1126,000000	73,116446
1125,000000	73,109206
1124,000000	73,083619
1123,000000	73,030970
1122,000000	73,029540
1121,000000	72,994778
1120,000000	73,088846
1119,000000	73,066995
1118,000000	73,063438
1117,000000	73,037865
1116,000000	73,051341
1115,000000	73,019212
1114,000000	73,042148
1113,000000	73,001001
1112,000000	72,992343
1111,000000	72,963505
1110,000000	73,005953
1109,000000	72,984737
1108,000000	73,004714
1107,000000	72,969920
1106,000000	73,047278
1105,000000	73,065547
1104,000000	73,063772
1103,000000	73,045686
1102,000000	73,094721
1101,000000	73,104459
1100,000000	73,118801
1099,000000	73,139044
1098,000000	73,170906
1097,000000	73,146407
1096,000000	73,204382
1095,000000	73,196036
1094,000000	73,248436
1093,000000	73,255079
1092,000000	73,294504
1091,000000	73,403375
1090,000000	73,454644
1089,000000	73,445690
1088,000000	73,432480
1087,000000	73,429174
1086,000000	73,484100
1085,000000	73,506094
1084,000000	73,557305
1083,000000	73,660573
1082,000000	73,678747
1081,000000	73,613868
1080,000000	73,676417
1079,000000	73,688240
1078,000000	73,764759
1077,000000	73,780914
1076,000000	73,880425
1075,000000	73,804787
1074,000000	73,858590
1073,000000	73,865795
1072,000000	73,915952
1071,000000	73,934463
1070,000000	73,976399
1069,000000	74,024075
1068,000000	74,018375
1067,000000	73,997970
1066,000000	74,043018
1065,000000	74,028994
1064,000000	74,092269
1063,000000	74,087037
1062,000000	74,169425
1061,000000	74,171290
1060,000000	74,133247
1059,000000	74,121272
1058,000000	74,132832
1057,000000	74,120655
1056,000000	74,138980
1055,000000	74,197108
1054,000000	74,129782
1053,000000	74,103036
1052,000000	74,122894
1051,000000	74,073667
1050,000000	74,127834
1049,000000	74,041369
1048,000000	74,039989
1047,000000	74,024064
1046,000000	74,023530
1045,000000	74,037967
1044,000000	73,979227
1043,000000	73,922576
1042,000000	73,901203
1041,000000	73,868744
1040,000000	73,851473
1039,000000	73,796714
1038,000000	73,786790
1037,000000	73,752442
1036,000000	73,790734
1035,000000	73,659295
1034,000000	73,659808
1033,000000	73,586306
1032,000000	73,554240
1031,000000	73,483027
1030,000000	73,461290
1029,000000	73,407413
1028,000000	73,400599
1027,000000	73,349239
1026,000000	73,316563
1025,000000	73,248801
1024,000000	73,194791
1023,000000	73,150837
1022,000000	73,121576
1021,000000	73,052535
1020,000000	73,035334
1019,000000	73,002751
1018,000000	72,969743
1017,000000	72,921342
1016,000000	72,908034
1015,000000	72,851296
1014,000000	72,822947
1013,000000	72,793590
1012,000000	72,786958
1011,000000	72,744582
1010,000000	72,721413
1009,000000	72,656152
1008,000000	72,579145
1007,000000	72,675376
1006,000000	72,727668
1005,000000	72,628409
1004,000000	72,619092
1003,000000	72,577758
1002,000000	72,535833
1001,000000	72,613526
1000,000000	72,617278
999,000000	72,600462
998,000000	72,572808
997,000000	72,525370
996,000000	72,670693
995,000000	72,738980
994,000000	72,605039
993,000000	72,512745
992,000000	72,595908
991,000000	72,698937
990,000000	72,681459
989,000000	72,592652
988,000000	72,664747
987,000000	72,774219
986,000000	72,812251
985,000000	72,798181
984,000000	72,727328
983,000000	72,812508
982,000000	72,957106
981,000000	72,981357
980,000000	72,989238
979,000000	72,917577
978,000000	73,008940
977,000000	73,152306
976,000000	73,191799
975,000000	73,171335
974,000000	73,124481
973,000000	73,174281
972,000000	73,286916
971,000000	73,388694
970,000000	73,415345
969,000000	73,519233
968,000000	73,655185
967,000000	73,764062
966,000000	73,840542
965,000000	73,906471
964,000000	73,944025
963,000000	73,973312
962,000000	73,995550
961,000000	74,014516
960,000000	74,037782
959,000000	74,052910
958,000000	74,075372
957,000000	74,094277
956,000000	74,100071
955,000000	74,088062
954,000000	74,087680
953,000000	74,079118
952,000000	74,087342
951,000000	74,101025
950,000000	74,116844
949,000000	74,102535
948,000000	74,087347
947,000000	74,085151
946,000000	74,069524
945,000000	74,031242
944,000000	74,014794
943,000000	73,993134
942,000000	73,978103
941,000000	73,970311
940,000000	73,956484
939,000000	73,915976
938,000000	73,883630
937,000000	73,852194
936,000000	73,816749
935,000000	73,788853
934,000000	73,766219
933,000000	73,731165
932,000000	73,697710
931,000000	73,661012
930,000000	73,625277
929,000000	73,590075
928,000000	73,537634
927,000000	73,517609
926,000000	73,518029
925,000000	73,479093
924,000000	73,431448
923,000000	73,418686
922,000000	73,394389
921,000000	73,371725
920,000000	73,353444
919,000000	73,322166
918,000000	73,322500
917,000000	73,317731
916,000000	73,286038
915,000000	73,298627
914,000000	73,252087
913,000000	73,238248
912,000000	73,239078
911,000000	73,236835
910,000000	73,224039
909,000000	73,229461
908,000000	73,249996
907,000000	73,295788
906,000000	73,293098
905,000000	73,290779
904,000000	73,307537
903,000000	73,334081
902,000000	73,359583
901,000000	73,371575
900,000000	73,376289
899,000000	73,432061
898,000000	73,470875
897,000000	73,502051
896,000000	73,524399
895,000000	73,550691
894,000000	73,584504
893,000000	73,625602
892,000000	73,622505
891,000000	73,716510
890,000000	73,748193
889,000000	73,822001
888,000000	73,808438
887,000000	73,822350
886,000000	73,843830
885,000000	73,937527
884,000000	73,948371
883,000000	73,974307
882,000000	74,026963
881,000000	74,135151
880,000000	74,104324
879,000000	74,143077
878,000000	74,127893
877,000000	74,230263
876,000000	74,259747
875,000000	74,290205
874,000000	74,217534
873,000000	74,359222
872,000000	74,292938
871,000000	74,314684
870,000000	74,297939
869,000000	74,352062
868,000000	74,372423
867,000000	74,340159
866,000000	74,252929
865,000000	74,418250
864,000000	74,299604
863,000000	74,287050
862,000000	74,246638
861,000000	74,335413
860,000000	74,268615
859,000000	74,153290
858,000000	74,633779
857,000000	74,305200
856,000000	74,547104
855,000000	74,442792
854,000000	74,168127
853,000000	74,706905
852,000000	74,315913
851,000000	74,037232
850,000000	74,140476
849,000000	74,410058
848,000000	73,993666
847,000000	74,315286
846,000000	74,055548
845,000000	74,326097
844,000000	74,012861
843,000000	73,972184
842,000000	74,156738
841,000000	73,877502
840,000000	73,813998
839,000000	73,874533
838,000000	73,728379
837,000000	73,997986
836,000000	73,929604
835,000000	73,892883
834,000000	74,001893
833,000000	73,943536
832,000000	74,101609
831,000000	74,031069
830,000000	73,980616
829,000000	73,950657
828,000000	74,223075
827,000000	74,118033
826,000000	74,029771
825,000000	74,227768
824,000000	74,385683
823,000000	74,278533
822,000000	74,251765
821,000000	74,295873
820,000000	74,279851
819,000000	74,330275
818,000000	74,559312
817,000000	74,811645
816,000000	74,734824
815,000000	74,622153
814,000000	74,760031
813,000000	74,915591
812,000000	74,876558
811,000000	74,947679
810,000000	74,932055
809,000000	75,336734
808,000000	75,381200
807,000000	75,006533
806,000000	75,025509
805,000000	75,090309
804,000000	75,165249
803,000000	75,209523
802,000000	75,140527
801,000000	75,352800
800,000000	75,234241
799,000000	75,115322
798,000000	75,301698
797,000000	75,256092
796,000000	75,145044
795,000000	75,259058
794,000000	75,265997
793,000000	75,159722
792,000000	75,099561
791,000000	75,212105
790,000000	74,942833
789,000000	74,941324
788,000000	75,065422
787,000000	74,954046
786,000000	75,032139
785,000000	74,930421
784,000000	74,912004
783,000000	74,858772
782,000000	74,904671
781,000000	74,766490
780,000000	74,787923
779,000000	74,916643
778,000000	74,966723
777,000000	74,954616
776,000000	74,944530
775,000000	74,683042
774,000000	74,828627
773,000000	74,986436
772,000000	74,855848
771,000000	74,822697
770,000000	74,866068
769,000000	74,919918
768,000000	74,872569
767,000000	75,025570
766,000000	74,963258
765,000000	75,160225
764,000000	75,207123
763,000000	75,173932
762,000000	75,258433
761,000000	75,343981
760,000000	75,396514
759,000000	75,435793
758,000000	75,480485
757,000000	75,464842
756,000000	75,531194
755,000000	75,628706
754,000000	75,820950
753,000000	75,839282
752,000000	75,785228
751,000000	75,768788
750,000000	75,941813
749,000000	75,947051
748,000000	76,018650
747,000000	76,023128
746,000000	75,995418
745,000000	76,008420
744,000000	75,989834
743,000000	76,090046
742,000000	76,033367
741,000000	75,943274
740,000000	75,987055
739,000000	75,971694
738,000000	76,052142
737,000000	75,969924
736,000000	75,996203
735,000000	75,953978
734,000000	75,885923
733,000000	75,938796
732,000000	75,791513
731,000000	75,665029
730,000000	75,706026
729,000000	75,770612
728,000000	75,654930
727,000000	75,686609
726,000000	75,613896
725,000000	75,725918
724,000000	75,585733
723,000000	75,558486
722,000000	75,576889
721,000000	75,542409
720,000000	75,516223
719,000000	75,659266
718,000000	75,629886
717,000000	75,674834
716,000000	75,611890
715,000000	75,664431
714,000000	75,739309
713,000000	75,830548
712,000000	75,893883
711,000000	75,916754
710,000000	75,920215
709,000000	76,022287
708,000000	76,068271
707,000000	76,059518
706,000000	76,103271
705,000000	76,175526
704,000000	76,288540
703,000000	76,313129
702,000000	76,341708
701,000000	76,417649
700,000000	76,515943
699,000000	76,616793
698,000000	76,672977
697,000000	76,595055
696,000000	76,652220
695,000000	76,719649
694,000000	76,644576
693,000000	76,610848
692,000000	76,563428
691,000000	76,590323
690,000000	76,555874
689,000000	76,498285
688,000000	76,431416
687,000000	76,417761
686,000000	76,423106
685,000000	76,363196
684,000000	76,305289
683,000000	76,298978
682,000000	76,256159
681,000000	76,226636
680,000000	76,222727
679,000000	76,165512
678,000000	76,117045
677,000000	76,101147
676,000000	76,069805
675,000000	75,983289
674,000000	76,004050
673,000000	76,067837
672,000000	76,051632
671,000000	76,079048
670,000000	76,150820
669,000000	76,235930
668,000000	76,164256
667,000000	76,159044
666,000000	76,228387
665,000000	76,301568
664,000000	76,343995
663,000000	76,423724
662,000000	76,481853
661,000000	76,511980
660,000000	76,580501
659,000000	76,669338
658,000000	76,701168
657,000000	76,695365
656,000000	76,734240
655,000000	76,720521
654,000000	76,749374
653,000000	76,827493
652,000000	76,841576
651,000000	76,759065
650,000000	76,761604
649,000000	76,843528
648,000000	76,802644
647,000000	76,740617
646,000000	76,733351
645,000000	76,784523
644,000000	76,771176
643,000000	76,699109
642,000000	76,632765
641,000000	76,531073
640,000000	76,508471
639,000000	76,472676
638,000000	76,450008
637,000000	76,432071
636,000000	76,405766
635,000000	76,429364
634,000000	76,486262
633,000000	76,512259
632,000000	76,494471
631,000000	76,461459
630,000000	76,430355
629,000000	76,458411
628,000000	76,544570
627,000000	76,566760
626,000000	76,579711
625,000000	76,622183
624,000000	76,696485
623,000000	76,746663
622,000000	76,746665
621,000000	76,799064
620,000000	76,815139
619,000000	76,812525
618,000000	76,844363
617,000000	76,874482
616,000000	76,934702
615,000000	76,904951
614,000000	76,886294
613,000000	76,853865
612,000000	76,841372
611,000000	76,844705
610,000000	76,851448
609,000000	76,856335
608,000000	76,847833
607,000000	76,749310
606,000000	76,677862
605,000000	76,680952
604,000000	76,688294
603,000000	76,641992
602,000000	76,623201
601,000000	76,611064
600,000000	76,620819
599,000000	76,596912
598,000000	76,593407
597,000000	76,579766
596,000000	76,623779
595,000000	76,660690
594,000000	76,675144
593,000000	76,710202
592,000000	76,789613
591,000000	76,800999
590,000000	76,834844
589,000000	76,843193
588,000000	76,859959
587,000000	76,894397
586,000000	76,900278
585,000000	76,936452
584,000000	76,953889
583,000000	76,940178
582,000000	76,935977
581,000000	76,904085
580,000000	76,877118
579,000000	76,830202
578,000000	76,801653
577,000000	76,767025
576,000000	76,766900
575,000000	76,755643
574,000000	76,747370
573,000000	76,744309
572,000000	76,712468
571,000000	76,631606
570,000000	76,634860
569,000000	76,617875
568,000000	76,637135
567,000000	76,650310
566,000000	76,662515
565,000000	76,654563
564,000000	76,696781
563,000000	76,716976
562,000000	76,783143
561,000000	76,905064
560,000000	76,976536
559,000000	77,005611
558,000000	76,972850
557,000000	77,009957
556,000000	77,042195
555,000000	77,072162
554,000000	77,008499
553,000000	77,013985
552,000000	76,976862
551,000000	76,900686
550,000000	76,933300
549,000000	76,862648
548,000000	76,837922
547,000000	76,760166
546,000000	76,764205
545,000000	76,729240
544,000000	76,697856
543,000000	76,647163
542,000000	76,624712
541,000000	76,644983
540,000000	76,638601
539,000000	76,686997
538,000000	76,721165
537,000000	76,783173
536,000000	76,759734
535,000000	76,787010
534,000000	76,829930
533,000000	76,832480
532,000000	76,798035
531,000000	76,839499
530,000000	76,803469
529,000000	76,818164
528,000000	76,815639
527,000000	76,716969
526,000000	76,670832
525,000000	76,660062
524,000000	76,613121
523,000000	76,593942
522,000000	76,518770
521,000000	76,470286
520,000000	76,411432
519,000000	76,386691
518,000000	76,338061
517,000000	76,285577
516,000000	76,328428
515,000000	76,255101
514,000000	76,259386
513,000000	76,260768
512,000000	76,196702
511,000000	76,219386
510,000000	76,234970
509,000000	76,135979
508,000000	76,147743
507,000000	76,140936
506,000000	76,079688
505,000000	75,994803
504,000000	75,954077
503,000000	76,015665
502,000000	75,890809
501,000000	75,949549
500,000000	75,864649
499,000000	75,953545
498,000000	75,871848
497,000000	75,916028
496,000000	75,918097
495,000000	75,888875
494,000000	75,854248
493,000000	75,880502
492,000000	76,000548
491,000000	76,016349
490,000000	76,065543
489,000000	76,059813
488,000000	75,961193
487,000000	76,006318
486,000000	76,001770
485,000000	75,936100
484,000000	75,975943
483,000000	75,937553
482,000000	75,967565
481,000000	75,852908
480,000000	75,822355
479,000000	75,695037
478,000000	75,704842
477,000000	75,602154
476,000000	75,510641
475,000000	75,539773
474,000000	75,467144
473,000000	75,414054
472,000000	75,436058
471,000000	75,297617
470,000000	75,271601
469,000000	75,165979
468,000000	75,053569
467,000000	74,968680
466,000000	74,903147
465,000000	74,820303
464,000000	74,760293
463,000000	74,717007
462,000000	74,663281
461,000000	74,544594
460,000000	74,506157
459,000000	74,508729
458,000000	74,457399
457,000000	74,447362
456,000000	74,475839
455,000000	74,319099
454,000000	74,184134
453,000000	74,137737
452,000000	73,987838
451,000000	73,882266
450,000000	73,842697
449,000000	73,745577
448,000000	73,638447
447,000000	73,579155
446,000000	73,568512
445,000000	73,523074
444,000000	73,487731
443,000000	73,381103
442,000000	73,308261
441,000000	73,155366
440,000000	72,995276
439,000000	72,907123
438,000000	72,708071
437,000000	72,558553
436,000000	72,448013
435,000000	72,354424
434,000000	72,166255
433,000000	72,019816
432,000000	71,835679
431,000000	71,598208
430,000000	71,266424
429,000000	71,008374
428,000000	70,597350
427,000000	70,108487
426,000000	69,649183
425,000000	68,906434
424,000000	68,151326
423,000000	67,281719
422,000000	66,270692
421,000000	65,088997
420,000000	63,827432
419,000000	62,537714
418,000000	61,227173
417,000000	59,808986
416,000000	58,555929
415,000000	57,375185
414,000000	56,350262
413,000000	55,396308
412,000000	54,617506
411,000000	54,018774
410,000000	53,578019
409,000000	53,245236
408,000000	53,032249
407,000000	52,948541
406,000000	52,880898
405,000000	52,946187
404,000000	53,026971
403,000000	53,158949
402,000000	53,358782
401,000000	53,476300
400,000000	53,644650
399,000000	53,917984
398,000000	54,051608
397,000000	54,272919
396,000000	54,480762
395,000000	54,590175
394,000000	54,751733
393,000000	54,923508
392,000000	55,005586
391,000000	55,103917
390,000000	55,202551
389,000000	55,262172
388,000000	55,420312
387,000000	55,569065
386,000000	55,646697
385,000000	55,815886
384,000000	55,905516
383,000000	56,015822
382,000000	56,176259
381,000000	56,373236
380,000000	56,584500
379,000000	56,779740
378,000000	57,058816
377,000000	57,476760
376,000000	57,819491
375,000000	58,172708
374,000000	58,792154
373,000000	59,470525
372,000000	60,182556
371,000000	61,012892
370,000000	61,425496
369,000000	62,323559
368,000000	63,273020
367,000000	63,969401
366,000000	64,663100
365,000000	65,312654
364,000000	66,387705
363,000000	66,808119
362,000000	67,002501
361,000000	67,417436
360,000000	68,226731
359,000000	68,472512
358,000000	68,765701
357,000000	69,229543
356,000000	69,965204
355,000000	70,397725
354,000000	70,693773
353,000000	71,267543
352,000000	71,801225
351,000000	72,057112
350,000000	72,284023
349,000000	72,694644
348,000000	72,994777
347,000000	73,190225
346,000000	73,150033
345,000000	73,759874
344,000000	74,219107
343,000000	73,791382
342,000000	73,535863
341,000000	73,268187
340,000000	73,067569
339,000000	73,437056
338,000000	73,418902
337,000000	72,997995
336,000000	72,640298
335,000000	72,194500
334,000000	72,307965
333,000000	72,055108
332,000000	71,317434
331,000000	71,122631
330,000000	70,838235
329,000000	70,630590
328,000000	70,435814
327,000000	70,311545
326,000000	70,136702
325,000000	69,594306
324,000000	69,234331
323,000000	69,199587
322,000000	68,910439
321,000000	68,705701
320,000000	68,957115
319,000000	69,104290
318,000000	69,083666
317,000000	69,018757
316,000000	68,864794
315,000000	68,898284
314,000000	68,936432
313,000000	68,876987
312,000000	68,857226
311,000000	68,822253
310,000000	68,874542
309,000000	69,254855
308,000000	69,670490
307,000000	70,044278
306,000000	70,539527
305,000000	71,314848
304,000000	71,968803
303,000000	72,345947
302,000000	72,619586
301,000000	72,846016
300,000000	73,186695
299,000000	73,483779
298,000000	74,066072
297,000000	74,801616
296,000000	75,490352
295,000000	76,093022
294,000000	76,796346
293,000000	77,544657
292,000000	78,339987
291,000000	79,197359
290,000000	80,334032
289,000000	81,259613
288,000000	82,241377
287,000000	83,278511
286,000000	84,439715
285,000000	85,682352
284,000000	86,742219
283,000000	87,644296
282,000000	88,427834
281,000000	89,453372
280,000000	90,291021
279,000000	91,194374
278,000000	91,920624
277,000000	92,611491
276,000000	93,062908
275,000000	93,656821
274,000000	94,307514
273,000000	94,850167
272,000000	95,181055
271,000000	95,438812
270,000000	95,547468
269,000000	95,755369
268,000000	95,966116
267,000000	96,223337
266,000000	96,518356
265,000000	96,950650
264,000000	97,467563
263,000000	97,996467
262,000000	98,493291
261,000000	99,135518
260,000000	100,014694
259,000000	100,720072
258,000000	101,350245
257,000000	102,421262
256,000000	103,741945
255,000000	104,949895
254,000000	106,117906
253,000000	107,366782
252,000000	108,999565
251,000000	110,689482
250,000000	112,348700
249,000000	113,903216
248,000000	115,180355
247,000000	116,190600
246,000000	117,678527
245,000000	119,171476
244,000000	120,896665
243,000000	122,847072
242,000000	125,048919
241,000000	127,147313
240,000000	129,064047
239,000000	131,258602
238,000000	133,526225
237,000000	136,160471
236,000000	139,818279
235,000000	143,510334
234,000000	147,360658
233,000000	150,465466
232,000000	152,405933
231,000000	156,432946
230,000000	159,635852
229,000000	162,948290
228,000000	166,033130
227,000000	169,209837
226,000000	172,346576
225,000000	175,729023
224,000000	178,337173
223,000000	181,157429
222,000000	184,530009
221,000000	186,828391
220,000000	189,154618
219,000000	192,209194
218,000000	194,509087
217,000000	197,307146
216,000000	199,641711
215,000000	202,577542
214,000000	204,662149
213,000000	207,497313
212,000000	212,021174
211,000000	216,017772
210,000000	220,586366
209,000000	226,984841
208,000000	231,951834
207,000000	238,436024
206,000000	246,906515
205,000000	255,753137
204,000000	264,337118
203,000000	275,790866
202,000000	287,025539
201,000000	299,151001
200,000000	312,839237
