PE UV       SUBTECH     SPECTRUM    ASCII       PEDS        4.00        
   -1
sampleA-direto.Sample.asc
22/01/26
16:42:21.00
22/01/26
16:42:21.00
Administrator

200,000000
1
Lambda 1050
1050L1808311
PerkinElmer UV WinLab 6.4.0.973 / 2.02.11 Lambda 900 UV/VIS/NIR, May 23 2018 11:23:04

0
0
3350/servo 1800,8/servo 860,8/2
0
0
UV/VIS
1
1
1
CommonBeamDepol,RBeamAtt,SBeamAtt,uv/vis/nir detector, TDS WB InGaAs Detector
0
0
0
0
Program
Program
3350/servo 1800,8/servo 860,8/2
3350/0,2 1800,8/0,2 860,8/0,2
3350/0,2 1800,8/0,2 860,8/0,2
0
3350/1,00 1800,8/1,00
 
 
 
0
 
860,8
319,2
1800,8 860,8
Front
100
on
S:100 R:100
 
0
0
0
 
0
 
 
 
0
 
 
0
0
0
0
0
 
 
 
 
0
0


0
0
#HDR
-1
-1
#GR
nm
%T
1.0
0.0
2000,000000
-1,000000
1801
8
57,971956
0,144662
#DATA
2000,000000	57,971956
1999,000000	57,949687
1998,000000	57,891748
1997,000000	57,892197
1996,000000	57,830665
1995,000000	57,812337
1994,000000	57,771970
1993,000000	57,752486
1992,000000	57,718440
1991,000000	57,705480
1990,000000	57,634922
1989,000000	57,638348
1988,000000	57,601977
1987,000000	57,571109
1986,000000	57,512151
1985,000000	57,497772
1984,000000	57,433618
1983,000000	57,421069
1982,000000	57,389201
1981,000000	57,355253
1980,000000	57,327715
1979,000000	57,292888
1978,000000	57,258537
1977,000000	57,233151
1976,000000	57,189279
1975,000000	57,170641
1974,000000	57,126246
1973,000000	57,104543
1972,000000	57,051456
1971,000000	57,053715
1970,000000	57,007415
1969,000000	56,989359
1968,000000	56,940674
1967,000000	56,928485
1966,000000	56,869985
1965,000000	56,851791
1964,000000	56,822105
1963,000000	56,796447
1962,000000	56,741734
1961,000000	56,727778
1960,000000	56,694299
1959,000000	56,658358
1958,000000	56,611318
1957,000000	56,583701
1956,000000	56,544796
1955,000000	56,516148
1954,000000	56,477429
1953,000000	56,447245
1952,000000	56,413556
1951,000000	56,386743
1950,000000	56,324128
1949,000000	56,310906
1948,000000	56,268396
1947,000000	56,249122
1946,000000	56,216698
1945,000000	56,184974
1944,000000	56,147165
1943,000000	56,121065
1942,000000	56,098626
1941,000000	56,063048
1940,000000	56,021163
1939,000000	55,997215
1938,000000	55,962951
1937,000000	55,944857
1936,000000	55,910339
1935,000000	55,888925
1934,000000	55,834413
1933,000000	55,811835
1932,000000	55,765849
1931,000000	55,734652
1930,000000	55,697035
1929,000000	55,680695
1928,000000	55,654198
1927,000000	55,628517
1926,000000	55,577358
1925,000000	55,560074
1924,000000	55,514986
1923,000000	55,458444
1922,000000	55,419709
1921,000000	55,417562
1920,000000	55,418851
1919,000000	55,422042
1918,000000	55,397539
1917,000000	55,355689
1916,000000	55,284006
1915,000000	55,239127
1914,000000	55,202625
1913,000000	55,178254
1912,000000	55,164819
1911,000000	55,158874
1910,000000	55,119282
1909,000000	55,067479
1908,000000	55,024536
1907,000000	55,018277
1906,000000	54,990310
1905,000000	54,986078
1904,000000	54,978362
1903,000000	54,953282
1902,000000	54,921175
1901,000000	54,885657
1900,000000	54,841921
1899,000000	54,819178
1898,000000	54,810024
1897,000000	54,780489
1896,000000	54,730817
1895,000000	54,682461
1894,000000	54,631370
1893,000000	54,588633
1892,000000	54,565631
1891,000000	54,562686
1890,000000	54,557315
1889,000000	54,551779
1888,000000	54,520639
1887,000000	54,482772
1886,000000	54,447295
1885,000000	54,417239
1884,000000	54,382700
1883,000000	54,388241
1882,000000	54,385329
1881,000000	54,345576
1880,000000	54,299659
1879,000000	54,262162
1878,000000	54,214528
1877,000000	54,182138
1876,000000	54,170726
1875,000000	54,145161
1874,000000	54,122167
1873,000000	54,120641
1872,000000	54,110540
1871,000000	54,108194
1870,000000	54,106317
1869,000000	54,096104
1868,000000	54,074010
1867,000000	54,056645
1866,000000	54,020120
1865,000000	53,972829
1864,000000	53,948650
1863,000000	53,915966
1862,000000	53,890728
1861,000000	53,884809
1860,000000	53,886639
1859,000000	53,900605
1858,000000	53,910062
1857,000000	53,894106
1856,000000	53,868913
1855,000000	53,834216
1854,000000	53,808678
1853,000000	53,806865
1852,000000	53,804986
1851,000000	53,771214
1850,000000	53,707874
1849,000000	53,668615
1848,000000	53,667632
1847,000000	53,698630
1846,000000	53,744088
1845,000000	53,731496
1844,000000	53,675774
1843,000000	53,605190
1842,000000	53,560396
1841,000000	53,544115
1840,000000	53,558802
1839,000000	53,570532
1838,000000	53,562042
1837,000000	53,549872
1836,000000	53,550972
1835,000000	53,546392
1834,000000	53,538051
1833,000000	53,506669
1832,000000	53,458782
1831,000000	53,429432
1830,000000	53,431404
1829,000000	53,437458
1828,000000	53,450330
1827,000000	53,456172
1826,000000	53,445995
1825,000000	53,424140
1824,000000	53,383657
1823,000000	53,332485
1822,000000	53,311877
1821,000000	53,303435
1820,000000	53,334105
1819,000000	53,373833
1818,000000	53,356240
1817,000000	53,304091
1816,000000	53,264520
1815,000000	53,239663
1814,000000	53,256458
1813,000000	53,246861
1812,000000	53,239128
1811,000000	53,221081
1810,000000	53,216220
1809,000000	53,208324
1808,000000	53,191999
1807,000000	53,164862
1806,000000	53,152836
1805,000000	53,137669
1804,000000	53,151213
1803,000000	53,131117
1802,000000	53,118673
1801,000000	53,111256
1800,000000	52,353238
1799,000000	52,336550
1798,000000	52,322648
1797,000000	52,309590
1796,000000	52,299468
1795,000000	52,296965
1794,000000	52,284027
1793,000000	52,265597
1792,000000	52,254882
1791,000000	52,242218
1790,000000	52,234814
1789,000000	52,227657
1788,000000	52,215585
1787,000000	52,203283
1786,000000	52,197640
1785,000000	52,192000
1784,000000	52,186069
1783,000000	52,180958
1782,000000	52,171661
1781,000000	52,158866
1780,000000	52,145560
1779,000000	52,135968
1778,000000	52,132136
1777,000000	52,123773
1776,000000	52,119617
1775,000000	52,112125
1774,000000	52,098938
1773,000000	52,087088
1772,000000	52,078487
1771,000000	52,077179
1770,000000	52,071804
1769,000000	52,061565
1768,000000	52,053280
1767,000000	52,045759
1766,000000	52,038681
1765,000000	52,032606
1764,000000	52,028917
1763,000000	52,024322
1762,000000	52,013929
1761,000000	52,003487
1760,000000	51,994959
1759,000000	51,986359
1758,000000	51,974948
1757,000000	51,964954
1756,000000	51,954158
1755,000000	51,945033
1754,000000	51,934698
1753,000000	51,922547
1752,000000	51,914409
1751,000000	51,905250
1750,000000	51,898421
1749,000000	51,888420
1748,000000	51,877790
1747,000000	51,866272
1746,000000	51,852687
1745,000000	51,843377
1744,000000	51,835188
1743,000000	51,825171
1742,000000	51,816676
1741,000000	51,807035
1740,000000	51,795120
1739,000000	51,780452
1738,000000	51,767894
1737,000000	51,760016
1736,000000	51,753222
1735,000000	51,742327
1734,000000	51,728394
1733,000000	51,711151
1732,000000	51,686925
1731,000000	51,670717
1730,000000	51,657775
1729,000000	51,640345
1728,000000	51,625063
1727,000000	51,614354
1726,000000	51,601406
1725,000000	51,586424
1724,000000	51,571061
1723,000000	51,555845
1722,000000	51,541160
1721,000000	51,521469
1720,000000	51,500937
1719,000000	51,477409
1718,000000	51,458668
1717,000000	51,443089
1716,000000	51,427175
1715,000000	51,411412
1714,000000	51,399582
1713,000000	51,388029
1712,000000	51,371103
1711,000000	51,343363
1710,000000	51,316756
1709,000000	51,295281
1708,000000	51,273997
1707,000000	51,254292
1706,000000	51,233164
1705,000000	51,210401
1704,000000	51,185210
1703,000000	51,162392
1702,000000	51,138085
1701,000000	51,110160
1700,000000	51,083856
1699,000000	51,060245
1698,000000	51,039108
1697,000000	51,020774
1696,000000	50,999392
1695,000000	50,973837
1694,000000	50,946681
1693,000000	50,920868
1692,000000	50,896283
1691,000000	50,870551
1690,000000	50,845861
1689,000000	50,819975
1688,000000	50,790758
1687,000000	50,761493
1686,000000	50,736034
1685,000000	50,713339
1684,000000	50,689044
1683,000000	50,661203
1682,000000	50,635242
1681,000000	50,609489
1680,000000	50,583563
1679,000000	50,559661
1678,000000	50,534912
1677,000000	50,510564
1676,000000	50,484222
1675,000000	50,457575
1674,000000	50,430806
1673,000000	50,403544
1672,000000	50,376184
1671,000000	50,347689
1670,000000	50,332700
1669,000000	50,322929
1668,000000	50,297857
1667,000000	50,266579
1666,000000	50,236511
1665,000000	50,209383
1664,000000	50,180722
1663,000000	50,153685
1662,000000	50,127677
1661,000000	50,100803
1660,000000	50,069923
1659,000000	50,033438
1658,000000	49,999427
1657,000000	49,969027
1656,000000	49,938912
1655,000000	49,908570
1654,000000	49,877661
1653,000000	49,844179
1652,000000	49,809495
1651,000000	49,772985
1650,000000	49,734647
1649,000000	49,701458
1648,000000	49,668263
1647,000000	49,631443
1646,000000	49,593770
1645,000000	49,553204
1644,000000	49,515085
1643,000000	49,481800
1642,000000	49,445657
1641,000000	49,408174
1640,000000	49,374110
1639,000000	49,342120
1638,000000	49,303444
1637,000000	49,261729
1636,000000	49,223802
1635,000000	49,187220
1634,000000	49,150688
1633,000000	49,115971
1632,000000	49,079963
1631,000000	49,040966
1630,000000	49,004232
1629,000000	48,966641
1628,000000	48,928328
1627,000000	48,892229
1626,000000	48,857946
1625,000000	48,822088
1624,000000	48,783313
1623,000000	48,740999
1622,000000	48,703352
1621,000000	48,666950
1620,000000	48,629947
1619,000000	48,587502
1618,000000	48,544671
1617,000000	48,505421
1616,000000	48,463925
1615,000000	48,421853
1614,000000	48,381502
1613,000000	48,342540
1612,000000	48,308973
1611,000000	48,278666
1610,000000	48,246054
1609,000000	48,206403
1608,000000	48,168135
1607,000000	48,130731
1606,000000	48,093161
1605,000000	48,055948
1604,000000	48,018069
1603,000000	47,980175
1602,000000	47,944634
1601,000000	47,907975
1600,000000	47,868345
1599,000000	47,828504
1598,000000	47,793901
1597,000000	47,763546
1596,000000	47,729167
1595,000000	47,692130
1594,000000	47,653538
1593,000000	47,613602
1592,000000	47,575311
1591,000000	47,538340
1590,000000	47,504533
1589,000000	47,467745
1588,000000	47,430882
1587,000000	47,396664
1586,000000	47,359785
1585,000000	47,320715
1584,000000	47,281945
1583,000000	47,248440
1582,000000	47,213466
1581,000000	47,182198
1580,000000	47,149978
1579,000000	47,114367
1578,000000	47,081236
1577,000000	47,047459
1576,000000	47,010758
1575,000000	46,979088
1574,000000	46,949418
1573,000000	46,916668
1572,000000	46,884054
1571,000000	46,850579
1570,000000	46,819088
1569,000000	46,790043
1568,000000	46,758687
1567,000000	46,725284
1566,000000	46,692447
1565,000000	46,662292
1564,000000	46,632909
1563,000000	46,604999
1562,000000	46,579905
1561,000000	46,552621
1560,000000	46,521325
1559,000000	46,491810
1558,000000	46,460413
1557,000000	46,430017
1556,000000	46,401735
1555,000000	46,377739
1554,000000	46,349216
1553,000000	46,319102
1552,000000	46,292629
1551,000000	46,268950
1550,000000	46,244293
1549,000000	46,219752
1548,000000	46,196862
1547,000000	46,174372
1546,000000	46,147849
1545,000000	46,121795
1544,000000	46,101626
1543,000000	46,077947
1542,000000	46,054709
1541,000000	46,031644
1540,000000	46,011448
1539,000000	45,991719
1538,000000	45,971059
1537,000000	45,947771
1536,000000	45,926967
1535,000000	45,909824
1534,000000	45,892275
1533,000000	45,873237
1532,000000	45,849996
1531,000000	45,833396
1530,000000	45,815796
1529,000000	45,802016
1528,000000	45,786452
1527,000000	45,768157
1526,000000	45,750375
1525,000000	45,735401
1524,000000	45,714840
1523,000000	45,692643
1522,000000	45,679934
1521,000000	45,667694
1520,000000	45,660907
1519,000000	45,648563
1518,000000	45,637722
1517,000000	45,627948
1516,000000	45,617785
1515,000000	45,602348
1514,000000	45,585136
1513,000000	45,571620
1512,000000	45,553706
1511,000000	45,536955
1510,000000	45,523945
1509,000000	45,509506
1508,000000	45,496851
1507,000000	45,490596
1506,000000	45,482233
1505,000000	45,477901
1504,000000	45,476393
1503,000000	45,467268
1502,000000	45,455577
1501,000000	45,446750
1500,000000	45,437420
1499,000000	45,422231
1498,000000	45,410988
1497,000000	45,405732
1496,000000	45,398814
1495,000000	45,390404
1494,000000	45,376852
1493,000000	45,368127
1492,000000	45,358094
1491,000000	45,348271
1490,000000	45,344023
1489,000000	45,342464
1488,000000	45,337871
1487,000000	45,330304
1486,000000	45,323465
1485,000000	45,318362
1484,000000	45,313824
1483,000000	45,311528
1482,000000	45,303861
1481,000000	45,297639
1480,000000	45,290402
1479,000000	45,287201
1478,000000	45,285628
1477,000000	45,284097
1476,000000	45,280037
1475,000000	45,277876
1474,000000	45,272106
1473,000000	45,265416
1472,000000	45,257869
1471,000000	45,254000
1470,000000	45,249802
1469,000000	45,249904
1468,000000	45,248265
1467,000000	45,245462
1466,000000	45,244929
1465,000000	45,239551
1464,000000	45,236424
1463,000000	45,233186
1462,000000	45,232784
1461,000000	45,226250
1460,000000	45,213644
1459,000000	45,204692
1458,000000	45,197481
1457,000000	45,192066
1456,000000	45,185418
1455,000000	45,175526
1454,000000	45,173880
1453,000000	45,170368
1452,000000	45,164138
1451,000000	45,162596
1450,000000	45,165919
1449,000000	45,165912
1448,000000	45,156579
1447,000000	45,143281
1446,000000	45,133665
1445,000000	45,127832
1444,000000	45,123135
1443,000000	45,116227
1442,000000	45,109719
1441,000000	45,105074
1440,000000	45,095316
1439,000000	45,084423
1438,000000	45,074173
1437,000000	45,067713
1436,000000	45,058051
1435,000000	45,045942
1434,000000	45,033285
1433,000000	45,019185
1432,000000	45,006586
1431,000000	44,992073
1430,000000	44,976407
1429,000000	44,958519
1428,000000	44,948200
1427,000000	44,938461
1426,000000	44,925509
1425,000000	44,910843
1424,000000	44,896585
1423,000000	44,880288
1422,000000	44,863264
1421,000000	44,848617
1420,000000	44,831343
1419,000000	44,813216
1418,000000	44,798507
1417,000000	44,789658
1416,000000	44,776950
1415,000000	44,759661
1414,000000	44,740735
1413,000000	44,722335
1412,000000	44,700818
1411,000000	44,682763
1410,000000	44,668624
1409,000000	44,652304
1408,000000	44,634036
1407,000000	44,612812
1406,000000	44,591830
1405,000000	44,575754
1404,000000	44,555865
1403,000000	44,530419
1402,000000	44,507354
1401,000000	44,489413
1400,000000	44,471778
1399,000000	44,451829
1398,000000	44,430147
1397,000000	44,409277
1396,000000	44,387444
1395,000000	44,362466
1394,000000	44,333443
1393,000000	44,306610
1392,000000	44,279629
1391,000000	44,252730
1390,000000	44,224323
1389,000000	44,197382
1388,000000	44,175352
1387,000000	44,152016
1386,000000	44,125093
1385,000000	44,093681
1384,000000	44,064091
1383,000000	44,039092
1382,000000	44,015192
1381,000000	43,990847
1380,000000	43,964572
1379,000000	43,935232
1378,000000	43,906602
1377,000000	43,876783
1376,000000	43,841646
1375,000000	43,809308
1374,000000	43,773383
1373,000000	43,734151
1372,000000	43,700483
1371,000000	43,667342
1370,000000	43,631307
1369,000000	43,599433
1368,000000	43,571369
1367,000000	43,542801
1366,000000	43,515895
1365,000000	43,490683
1364,000000	43,464954
1363,000000	43,435757
1362,000000	43,408191
1361,000000	43,385765
1360,000000	43,367530
1359,000000	43,345854
1358,000000	43,319015
1357,000000	43,289978
1356,000000	43,262916
1355,000000	43,236662
1354,000000	43,207099
1353,000000	43,177359
1352,000000	43,148608
1351,000000	43,117815
1350,000000	43,086545
1349,000000	43,055169
1348,000000	43,020645
1347,000000	42,984878
1346,000000	42,952316
1345,000000	42,921805
1344,000000	42,890476
1343,000000	42,859731
1342,000000	42,833050
1341,000000	42,805507
1340,000000	42,772650
1339,000000	42,738801
1338,000000	42,706072
1337,000000	42,680509
1336,000000	42,654386
1335,000000	42,626671
1334,000000	42,603624
1333,000000	42,581284
1332,000000	42,558471
1331,000000	42,535654
1330,000000	42,507005
1329,000000	42,476061
1328,000000	42,450096
1327,000000	42,424594
1326,000000	42,402189
1325,000000	42,382001
1324,000000	42,362869
1323,000000	42,345254
1322,000000	42,325471
1321,000000	42,309940
1320,000000	42,290981
1319,000000	42,272065
1318,000000	42,208402
1317,000000	42,162655
1316,000000	42,191079
1315,000000	42,200690
1314,000000	42,183086
1313,000000	42,170010
1312,000000	42,159980
1311,000000	42,150170
1310,000000	42,092285
1309,000000	42,096941
1308,000000	42,115619
1307,000000	42,112294
1306,000000	42,102923
1305,000000	42,093259
1304,000000	42,084881
1303,000000	42,078033
1302,000000	42,072967
1301,000000	42,068883
1300,000000	42,062170
1299,000000	42,055583
1298,000000	42,047543
1297,000000	42,042383
1296,000000	42,041646
1295,000000	42,037923
1294,000000	42,029288
1293,000000	41,993681
1292,000000	42,012122
1291,000000	42,027504
1290,000000	42,031144
1289,000000	42,034617
1288,000000	42,038405
1287,000000	42,038576
1286,000000	42,037036
1285,000000	42,034224
1284,000000	42,034460
1283,000000	42,035153
1282,000000	42,040477
1281,000000	42,043500
1280,000000	42,045364
1279,000000	42,049135
1278,000000	42,052956
1277,000000	42,057785
1276,000000	42,064239
1275,000000	42,072609
1274,000000	42,080823
1273,000000	42,085681
1272,000000	42,096341
1271,000000	42,110227
1270,000000	42,086800
1269,000000	42,121422
1268,000000	42,143160
1267,000000	42,153308
1266,000000	42,164933
1265,000000	42,174786
1264,000000	42,188588
1263,000000	42,204030
1262,000000	42,218164
1261,000000	42,228610
1260,000000	42,240874
1259,000000	42,255913
1258,000000	42,271039
1257,000000	42,287072
1256,000000	42,303120
1255,000000	42,320614
1254,000000	42,335738
1253,000000	42,353269
1252,000000	42,365788
1251,000000	42,374397
1250,000000	42,385081
1249,000000	42,397719
1248,000000	42,415199
1247,000000	42,431284
1246,000000	42,443966
1245,000000	42,452462
1244,000000	42,465287
1243,000000	42,479298
1242,000000	42,494673
1241,000000	42,505606
1240,000000	42,449654
1239,000000	42,509798
1238,000000	42,533727
1237,000000	42,544933
1236,000000	42,555321
1235,000000	42,564547
1234,000000	42,513368
1233,000000	42,573883
1232,000000	42,590998
1231,000000	42,601006
1230,000000	42,609086
1229,000000	42,618784
1228,000000	42,627988
1227,000000	42,638583
1226,000000	42,589321
1225,000000	42,643046
1224,000000	42,664018
1223,000000	42,672689
1222,000000	42,627779
1221,000000	42,684905
1220,000000	42,689263
1219,000000	42,694467
1218,000000	42,702019
1217,000000	42,709881
1216,000000	42,715406
1215,000000	42,718198
1214,000000	42,719466
1213,000000	42,722450
1212,000000	42,725714
1211,000000	42,727063
1210,000000	42,726165
1209,000000	42,724197
1208,000000	42,718294
1207,000000	42,715747
1206,000000	42,713740
1205,000000	42,708081
1204,000000	42,705846
1203,000000	42,697841
1202,000000	42,689214
1201,000000	42,675966
1200,000000	42,663217
1199,000000	42,654696
1198,000000	42,645404
1197,000000	42,630313
1196,000000	42,618251
1195,000000	42,606984
1194,000000	42,594414
1193,000000	42,584039
1192,000000	42,573921
1191,000000	42,563175
1190,000000	42,570141
1189,000000	42,559251
1188,000000	42,545083
1187,000000	42,527754
1186,000000	42,511759
1185,000000	42,499396
1184,000000	42,483415
1183,000000	42,467080
1182,000000	42,458213
1181,000000	42,446216
1180,000000	42,433379
1179,000000	42,419064
1178,000000	42,404379
1177,000000	42,392842
1176,000000	42,376880
1175,000000	42,362300
1174,000000	42,344234
1173,000000	42,321961
1172,000000	42,305157
1171,000000	42,291320
1170,000000	42,280163
1169,000000	42,261920
1168,000000	42,245262
1167,000000	42,235678
1166,000000	42,223250
1165,000000	42,215011
1164,000000	42,209542
1163,000000	42,195856
1162,000000	42,178312
1161,000000	42,161140
1160,000000	42,148039
1159,000000	42,137425
1158,000000	42,131775
1157,000000	42,126233
1156,000000	42,116128
1155,000000	42,101384
1154,000000	42,093652
1153,000000	42,088147
1152,000000	42,080415
1151,000000	42,079070
1150,000000	42,080214
1149,000000	42,076252
1148,000000	42,069421
1147,000000	42,067644
1146,000000	42,071187
1145,000000	42,074206
1144,000000	42,073184
1143,000000	42,073734
1142,000000	42,079180
1141,000000	42,080751
1140,000000	42,084700
1139,000000	42,087349
1138,000000	42,094454
1137,000000	42,101804
1136,000000	42,112297
1135,000000	42,123532
1134,000000	42,134340
1133,000000	42,148056
1132,000000	42,164407
1131,000000	42,181216
1130,000000	42,198955
1129,000000	42,218648
1128,000000	42,236927
1127,000000	42,251779
1126,000000	42,272014
1125,000000	42,298104
1124,000000	42,323386
1123,000000	42,349670
1122,000000	42,369766
1121,000000	42,394376
1120,000000	42,422224
1119,000000	42,453279
1118,000000	42,488018
1117,000000	42,522631
1116,000000	42,557562
1115,000000	42,588179
1114,000000	42,617536
1113,000000	42,650481
1112,000000	42,686106
1111,000000	42,718089
1110,000000	42,754029
1109,000000	42,788039
1108,000000	42,822559
1107,000000	42,855277
1106,000000	42,891290
1105,000000	42,937510
1104,000000	42,983437
1103,000000	43,025971
1102,000000	43,068372
1101,000000	43,107818
1100,000000	43,143747
1099,000000	43,186730
1098,000000	43,238102
1097,000000	43,289516
1096,000000	43,332546
1095,000000	43,375020
1094,000000	43,419770
1093,000000	43,465086
1092,000000	43,510453
1091,000000	43,556771
1090,000000	43,603176
1089,000000	43,649849
1088,000000	43,697318
1087,000000	43,742896
1086,000000	43,789625
1085,000000	43,834706
1084,000000	43,877823
1083,000000	43,923513
1082,000000	43,970250
1081,000000	44,012518
1080,000000	44,053367
1079,000000	44,096513
1078,000000	44,136305
1077,000000	44,169599
1076,000000	44,205603
1075,000000	44,245336
1074,000000	44,280101
1073,000000	44,315027
1072,000000	44,349839
1071,000000	44,382484
1070,000000	44,416561
1069,000000	44,450339
1068,000000	44,482229
1067,000000	44,514041
1066,000000	44,543864
1065,000000	44,571169
1064,000000	44,596369
1063,000000	44,620457
1062,000000	44,644639
1061,000000	44,667350
1060,000000	44,686086
1059,000000	44,704379
1058,000000	44,726972
1057,000000	44,750595
1056,000000	44,769553
1055,000000	44,784454
1054,000000	44,799058
1053,000000	44,812046
1052,000000	44,823742
1051,000000	44,835913
1050,000000	44,849255
1049,000000	44,860770
1048,000000	44,869640
1047,000000	44,878355
1046,000000	44,885262
1045,000000	44,891432
1044,000000	44,897858
1043,000000	44,905533
1042,000000	44,913089
1041,000000	44,914209
1040,000000	44,914820
1039,000000	44,917416
1038,000000	44,921450
1037,000000	44,927288
1036,000000	44,931721
1035,000000	44,934141
1034,000000	44,938915
1033,000000	44,945019
1032,000000	44,947961
1031,000000	44,948130
1030,000000	44,950491
1029,000000	44,954180
1028,000000	44,955030
1027,000000	44,957535
1026,000000	44,963645
1025,000000	44,968544
1024,000000	44,973722
1023,000000	44,982465
1022,000000	44,992390
1021,000000	45,000446
1020,000000	45,008745
1019,000000	45,019586
1018,000000	45,030236
1017,000000	45,041794
1016,000000	45,056099
1015,000000	45,073708
1014,000000	45,093703
1013,000000	45,112785
1012,000000	45,132202
1011,000000	45,153192
1010,000000	45,173662
1009,000000	45,197127
1008,000000	45,225041
1007,000000	45,247761
1006,000000	45,270967
1005,000000	45,299460
1004,000000	45,330258
1003,000000	45,363731
1002,000000	45,400257
1001,000000	45,437294
1000,000000	45,475010
999,000000	45,514175
998,000000	45,555871
997,000000	45,598731
996,000000	45,645556
995,000000	45,696372
994,000000	45,743946
993,000000	45,793383
992,000000	45,847829
991,000000	45,902983
990,000000	45,957431
989,000000	46,012536
988,000000	46,069576
987,000000	46,131127
986,000000	46,194658
985,000000	46,260185
984,000000	46,327716
983,000000	46,400845
982,000000	46,470982
981,000000	46,538332
980,000000	46,606752
979,000000	46,673219
978,000000	46,736701
977,000000	46,801192
976,000000	46,869705
975,000000	46,943923
974,000000	47,019115
973,000000	47,093532
972,000000	47,169121
971,000000	47,244722
970,000000	47,316830
969,000000	47,389350
968,000000	47,461321
967,000000	47,530313
966,000000	47,598330
965,000000	47,666328
964,000000	47,735037
963,000000	47,804686
962,000000	47,874601
961,000000	47,943219
960,000000	48,006359
959,000000	48,067236
958,000000	48,128132
957,000000	48,187905
956,000000	48,246643
955,000000	48,298326
954,000000	48,346672
953,000000	48,398321
952,000000	48,453487
951,000000	48,503039
950,000000	48,549308
949,000000	48,596221
948,000000	48,640852
947,000000	48,681167
946,000000	48,727860
945,000000	48,766072
944,000000	48,800532
943,000000	48,835268
942,000000	48,868868
941,000000	48,898875
940,000000	48,928210
939,000000	48,956766
938,000000	48,985427
937,000000	49,010294
936,000000	49,029150
935,000000	49,050174
934,000000	49,070632
933,000000	49,090441
932,000000	49,108867
931,000000	49,121317
930,000000	49,127939
929,000000	49,140822
928,000000	49,159169
927,000000	49,174721
926,000000	49,186308
925,000000	49,195397
924,000000	49,205685
923,000000	49,214677
922,000000	49,223475
921,000000	49,232203
920,000000	49,236599
919,000000	49,246183
918,000000	49,256057
917,000000	49,271574
916,000000	49,284386
915,000000	49,299659
914,000000	49,317191
913,000000	49,337432
912,000000	49,359043
911,000000	49,378674
910,000000	49,399600
909,000000	49,423938
908,000000	49,448999
907,000000	49,474278
906,000000	49,501180
905,000000	49,531837
904,000000	49,562526
903,000000	49,601580
902,000000	49,641080
901,000000	49,684304
900,000000	49,727539
899,000000	49,766861
898,000000	49,813939
897,000000	49,866255
896,000000	49,913029
895,000000	49,963052
894,000000	50,026558
893,000000	50,095428
892,000000	50,159373
891,000000	50,214756
890,000000	50,272808
889,000000	50,340153
888,000000	50,403745
887,000000	50,479538
886,000000	50,553652
885,000000	50,629535
884,000000	50,698444
883,000000	50,767804
882,000000	50,847410
881,000000	50,922458
880,000000	51,002605
879,000000	51,086514
878,000000	51,173915
877,000000	51,254496
876,000000	51,336991
875,000000	51,421058
874,000000	51,501278
873,000000	51,577791
872,000000	51,651003
871,000000	51,729636
870,000000	51,799654
869,000000	51,868801
868,000000	51,933562
867,000000	52,009062
866,000000	52,076153
865,000000	52,146032
864,000000	52,213108
863,000000	52,272643
862,000000	52,331204
861,000000	52,390818
860,000000	53,028225
859,000000	53,144104
858,000000	53,101791
857,000000	53,158823
856,000000	53,224547
855,000000	53,211105
854,000000	53,320395
853,000000	53,307172
852,000000	53,365556
851,000000	53,416221
850,000000	53,437038
849,000000	53,470931
848,000000	53,497300
847,000000	53,515782
846,000000	53,528943
845,000000	53,559528
844,000000	53,551070
843,000000	53,577022
842,000000	53,590273
841,000000	53,625119
840,000000	53,608014
839,000000	53,633794
838,000000	53,655483
837,000000	53,649689
836,000000	53,675207
835,000000	53,695480
834,000000	53,681503
833,000000	53,708409
832,000000	53,711859
831,000000	53,724765
830,000000	53,737647
829,000000	53,749343
828,000000	53,737678
827,000000	53,760893
826,000000	53,777724
825,000000	53,820727
824,000000	53,816815
823,000000	53,859696
822,000000	53,893110
821,000000	53,895450
820,000000	53,932018
819,000000	53,960006
818,000000	54,008726
817,000000	54,039128
816,000000	54,089654
815,000000	54,144185
814,000000	54,160763
813,000000	54,208741
812,000000	54,261557
811,000000	54,307190
810,000000	54,356691
809,000000	54,412733
808,000000	54,489127
807,000000	54,536942
806,000000	54,585276
805,000000	54,651784
804,000000	54,724508
803,000000	54,800709
802,000000	54,849768
801,000000	54,920438
800,000000	54,973499
799,000000	55,027950
798,000000	55,111556
797,000000	55,162126
796,000000	55,212663
795,000000	55,255378
794,000000	55,304288
793,000000	55,362049
792,000000	55,403919
791,000000	55,459381
790,000000	55,510530
789,000000	55,565003
788,000000	55,589533
787,000000	55,619348
786,000000	55,640495
785,000000	55,661159
784,000000	55,684883
783,000000	55,713243
782,000000	55,730915
781,000000	55,737073
780,000000	55,725176
779,000000	55,731843
778,000000	55,731861
777,000000	55,752305
776,000000	55,738580
775,000000	55,733015
774,000000	55,716885
773,000000	55,697168
772,000000	55,673542
771,000000	55,655691
770,000000	55,645403
769,000000	55,642715
768,000000	55,626552
767,000000	55,601244
766,000000	55,586244
765,000000	55,559537
764,000000	55,554692
763,000000	55,538996
762,000000	55,523759
761,000000	55,506353
760,000000	55,485189
759,000000	55,467418
758,000000	55,463948
757,000000	55,472902
756,000000	55,474395
755,000000	55,462585
754,000000	55,479297
753,000000	55,476219
752,000000	55,478711
751,000000	55,480558
750,000000	55,485732
749,000000	55,496371
748,000000	55,510043
747,000000	55,513628
746,000000	55,533190
745,000000	55,552277
744,000000	55,569806
743,000000	55,585364
742,000000	55,610841
741,000000	55,624948
740,000000	55,656964
739,000000	55,670581
738,000000	55,682767
737,000000	55,704927
736,000000	55,718848
735,000000	55,724245
734,000000	55,727180
733,000000	55,732229
732,000000	55,738294
731,000000	55,733517
730,000000	55,725734
729,000000	55,721672
728,000000	55,707201
727,000000	55,684938
726,000000	55,655243
725,000000	55,630410
724,000000	55,592083
723,000000	55,551698
722,000000	55,500484
721,000000	55,452844
720,000000	55,403200
719,000000	55,333542
718,000000	55,274907
717,000000	55,214652
716,000000	55,152059
715,000000	55,090173
714,000000	55,018009
713,000000	54,941821
712,000000	54,863428
711,000000	54,791028
710,000000	54,726403
709,000000	54,655194
708,000000	54,570709
707,000000	54,485917
706,000000	54,411324
705,000000	54,345341
704,000000	54,275101
703,000000	54,217126
702,000000	54,161410
701,000000	54,101981
700,000000	54,042404
699,000000	53,983729
698,000000	53,924154
697,000000	53,875758
696,000000	53,833116
695,000000	53,789944
694,000000	53,749541
693,000000	53,703489
692,000000	53,659672
691,000000	53,628624
690,000000	53,588829
689,000000	53,553246
688,000000	53,523796
687,000000	53,484673
686,000000	53,440434
685,000000	53,401216
684,000000	53,358266
683,000000	53,304610
682,000000	53,251073
681,000000	53,190483
680,000000	53,133886
679,000000	53,073108
678,000000	53,010693
677,000000	52,942582
676,000000	52,859930
675,000000	52,769978
674,000000	52,675108
673,000000	52,583624
672,000000	52,479173
671,000000	52,369644
670,000000	52,249992
669,000000	52,130659
668,000000	51,998318
667,000000	51,874168
666,000000	51,752474
665,000000	51,617866
664,000000	51,470602
663,000000	51,342291
662,000000	51,207957
661,000000	51,067894
660,000000	50,929102
659,000000	50,804570
658,000000	50,677242
657,000000	50,549763
656,000000	50,414490
655,000000	50,292144
654,000000	50,170556
653,000000	50,053027
652,000000	49,945089
651,000000	49,835257
650,000000	49,720305
649,000000	49,608217
648,000000	49,513396
647,000000	49,416187
646,000000	49,325278
645,000000	49,233242
644,000000	49,135393
643,000000	49,049027
642,000000	48,947875
641,000000	48,866368
640,000000	48,770720
639,000000	48,674108
638,000000	48,588258
637,000000	48,488545
636,000000	48,374735
635,000000	48,264376
634,000000	48,150935
633,000000	48,041840
632,000000	47,922594
631,000000	47,784969
630,000000	47,648402
629,000000	47,508338
628,000000	47,366180
627,000000	47,219889
626,000000	47,065125
625,000000	46,907536
624,000000	46,751529
623,000000	46,592523
622,000000	46,439682
621,000000	46,277017
620,000000	46,115480
619,000000	45,957013
618,000000	45,796012
617,000000	45,641657
616,000000	45,481559
615,000000	45,333154
614,000000	45,188357
613,000000	45,053531
612,000000	44,928800
611,000000	44,794109
610,000000	44,661825
609,000000	44,548360
608,000000	44,425192
607,000000	44,310619
606,000000	44,202688
605,000000	44,090284
604,000000	43,983574
603,000000	43,883319
602,000000	43,777942
601,000000	43,673692
600,000000	43,567324
599,000000	43,472521
598,000000	43,367214
597,000000	43,253022
596,000000	43,150931
595,000000	43,038088
594,000000	42,918811
593,000000	42,797425
592,000000	42,677188
591,000000	42,543250
590,000000	42,415471
589,000000	42,294085
588,000000	42,165046
587,000000	42,041794
586,000000	41,907844
585,000000	41,781671
584,000000	41,652506
583,000000	41,525397
582,000000	41,401706
581,000000	41,302306
580,000000	41,204942
579,000000	41,094924
578,000000	41,000710
577,000000	40,913601
576,000000	40,826398
575,000000	40,762317
574,000000	40,690548
573,000000	40,622779
572,000000	40,577950
571,000000	40,535356
570,000000	40,482471
569,000000	40,440083
568,000000	40,395785
567,000000	40,354806
566,000000	40,314070
565,000000	40,277304
564,000000	40,241823
563,000000	40,211341
562,000000	40,171952
561,000000	40,127572
560,000000	40,081319
559,000000	40,037769
558,000000	39,988753
557,000000	39,941414
556,000000	39,892510
555,000000	39,848648
554,000000	39,805940
553,000000	39,767551
552,000000	39,734362
551,000000	39,708415
550,000000	39,694479
549,000000	39,691767
548,000000	39,702857
547,000000	39,699290
546,000000	39,718957
545,000000	39,755472
544,000000	39,790378
543,000000	39,833233
542,000000	39,895507
541,000000	39,956556
540,000000	40,027148
539,000000	40,103235
538,000000	40,177862
537,000000	40,250583
536,000000	40,324989
535,000000	40,407030
534,000000	40,480490
533,000000	40,551898
532,000000	40,624982
531,000000	40,686659
530,000000	40,741807
529,000000	40,803839
528,000000	40,858674
527,000000	40,914077
526,000000	40,971714
525,000000	41,026653
524,000000	41,088711
523,000000	41,149589
522,000000	41,218238
521,000000	41,296773
520,000000	41,379161
519,000000	41,474881
518,000000	41,579197
517,000000	41,695814
516,000000	41,812401
515,000000	41,939842
514,000000	42,080918
513,000000	42,205961
512,000000	42,333422
511,000000	42,465367
510,000000	42,604600
509,000000	42,720497
508,000000	42,821466
507,000000	42,914461
506,000000	43,006030
505,000000	43,081385
504,000000	43,153408
503,000000	43,214690
502,000000	43,271613
501,000000	43,330760
500,000000	43,376681
499,000000	43,429804
498,000000	43,491576
497,000000	43,564404
496,000000	43,641656
495,000000	43,724833
494,000000	43,824121
493,000000	43,934919
492,000000	44,036302
491,000000	44,135095
490,000000	44,227872
489,000000	44,320256
488,000000	44,395086
487,000000	44,461047
486,000000	44,506572
485,000000	44,542670
484,000000	44,553877
483,000000	44,550595
482,000000	44,528907
481,000000	44,500233
480,000000	44,459248
479,000000	44,409282
478,000000	44,351086
477,000000	44,286792
476,000000	44,218710
475,000000	44,148201
474,000000	44,091410
473,000000	44,025069
472,000000	43,952654
471,000000	43,855468
470,000000	43,752183
469,000000	43,633897
468,000000	43,481686
467,000000	43,298668
466,000000	43,089371
465,000000	42,852039
464,000000	42,597544
463,000000	42,316100
462,000000	42,023696
461,000000	41,716883
460,000000	41,414124
459,000000	41,114456
458,000000	40,824510
457,000000	40,528884
456,000000	40,241729
455,000000	39,958172
454,000000	39,665972
453,000000	39,374543
452,000000	39,069389
451,000000	38,754257
450,000000	38,418648
449,000000	38,062305
448,000000	37,696904
447,000000	37,317645
446,000000	36,937858
445,000000	36,572238
444,000000	36,236185
443,000000	35,921232
442,000000	35,626197
441,000000	35,353812
440,000000	35,104036
439,000000	34,870649
438,000000	34,645419
437,000000	34,432416
436,000000	34,223182
435,000000	34,019527
434,000000	33,817725
433,000000	33,616686
432,000000	33,429584
431,000000	33,261226
430,000000	33,103746
429,000000	32,954356
428,000000	32,814008
427,000000	32,658628
426,000000	32,457945
425,000000	32,195299
424,000000	31,840726
423,000000	31,366673
422,000000	30,778514
421,000000	30,084660
420,000000	29,292124
419,000000	28,398711
418,000000	27,425221
417,000000	26,405766
416,000000	25,377115
415,000000	24,370150
414,000000	23,406733
413,000000	22,520735
412,000000	21,729660
411,000000	21,036491
410,000000	20,443189
409,000000	19,940277
408,000000	19,526062
407,000000	19,185815
406,000000	18,903220
405,000000	18,675159
404,000000	18,485039
403,000000	18,324480
402,000000	18,190194
401,000000	18,069783
400,000000	17,955178
399,000000	17,849361
398,000000	17,741181
397,000000	17,628307
396,000000	17,512596
395,000000	17,385499
394,000000	17,258955
393,000000	17,126340
392,000000	16,994116
391,000000	16,863777
390,000000	16,729769
389,000000	16,604946
388,000000	16,492326
387,000000	16,396064
386,000000	16,304680
385,000000	16,222227
384,000000	16,154601
383,000000	16,095639
382,000000	16,037896
381,000000	15,988086
380,000000	15,944317
379,000000	15,833029
378,000000	15,728444
377,000000	15,664755
376,000000	15,608548
375,000000	15,569089
374,000000	15,522772
373,000000	15,454034
372,000000	15,362270
371,000000	15,258249
370,000000	15,163868
369,000000	15,060399
368,000000	14,949290
367,000000	14,813111
366,000000	14,673693
365,000000	14,529136
364,000000	14,371302
363,000000	14,211316
362,000000	14,036557
361,000000	13,832053
360,000000	13,625174
359,000000	13,418829
358,000000	13,194809
357,000000	12,958857
356,000000	12,710822
355,000000	12,467448
354,000000	12,217192
353,000000	11,947422
352,000000	11,692722
351,000000	11,450076
350,000000	11,205727
349,000000	10,970896
348,000000	10,748819
347,000000	10,508465
346,000000	10,296942
345,000000	10,112694
344,000000	9,915833
343,000000	9,715601
342,000000	9,538921
341,000000	9,365458
340,000000	9,189315
339,000000	9,024073
338,000000	8,869476
337,000000	8,706110
336,000000	8,553175
335,000000	8,423257
334,000000	8,253830
333,000000	8,118289
332,000000	7,979395
331,000000	7,847904
330,000000	7,698048
329,000000	7,554247
328,000000	7,398805
327,000000	7,249866
326,000000	7,087656
325,000000	6,927978
324,000000	6,772348
323,000000	6,640003
322,000000	6,499468
321,000000	6,390968
320,000000	6,267907
319,000000	6,215606
318,000000	6,115289
317,000000	6,011394
316,000000	5,912325
315,000000	5,827830
314,000000	5,746295
313,000000	5,667829
312,000000	5,595465
311,000000	5,523215
310,000000	5,456879
309,000000	5,399581
308,000000	5,350188
307,000000	5,299109
306,000000	5,260593
305,000000	5,225715
304,000000	5,188349
303,000000	5,149183
302,000000	5,109757
301,000000	5,056047
300,000000	5,001534
299,000000	4,935409
298,000000	4,862189
297,000000	4,780989
296,000000	4,689914
295,000000	4,596510
294,000000	4,499542
293,000000	4,395594
292,000000	4,283842
291,000000	4,163461
290,000000	4,031368
289,000000	3,890399
288,000000	3,724482
287,000000	3,550552
286,000000	3,345353
285,000000	3,128671
284,000000	2,895109
283,000000	2,645548
282,000000	2,382813
281,000000	2,126335
280,000000	1,860422
279,000000	1,596730
278,000000	1,341948
277,000000	1,106077
276,000000	0,890872
275,000000	0,704586
274,000000	0,550054
273,000000	0,427402
272,000000	0,333210
271,000000	0,268116
270,000000	0,228976
269,000000	0,209172
268,000000	0,201602
267,000000	0,197305
266,000000	0,188104
265,000000	0,176449
264,000000	0,163589
263,000000	0,156390
262,000000	0,154449
261,000000	0,153189
260,000000	0,151284
259,000000	0,153281
258,000000	0,152292
257,000000	0,149835
256,000000	0,150572
255,000000	0,150370
254,000000	0,151227
253,000000	0,147834
252,000000	0,149740
251,000000	0,149577
250,000000	0,148748
249,000000	0,147500
248,000000	0,148804
247,000000	0,147726
246,000000	0,146368
245,000000	0,144662
244,000000	0,146840
243,000000	0,150514
242,000000	0,150754
241,000000	0,150181
240,000000	0,151522
239,000000	0,151666
238,000000	0,153956
237,000000	0,153959
236,000000	0,156238
235,000000	0,155214
234,000000	0,157273
233,000000	0,156563
232,000000	0,158250
231,000000	0,158262
230,000000	0,155934
229,000000	0,156359
228,000000	0,157413
227,000000	0,156380
226,000000	0,155676
225,000000	0,156987
224,000000	0,157008
223,000000	0,157425
222,000000	0,156356
221,000000	0,156865
220,000000	0,158022
219,000000	0,155595
218,000000	0,155309
217,000000	0,154257
216,000000	0,153856
215,000000	0,156915
214,000000	0,156805
213,000000	0,158564
212,000000	0,159055
211,000000	0,160470
210,000000	0,161256
209,000000	0,162725
208,000000	0,163808
207,000000	0,165185
206,000000	0,167098
205,000000	0,167825
204,000000	0,167523
203,000000	0,170841
202,000000	0,173474
201,000000	0,177015
200,000000	0,180509
