PE UV       SUBTECH     SPECTRUM    ASCII       PEDS        4.00        
   -1
sampleB_T.Sample.asc
22/01/26
15:14:59.00
22/01/26
15:14:59.00
Administrator

200,000000
1
Lambda 1050
1050L1808311
PerkinElmer UV WinLab 6.4.0.973 / 2.02.11 Lambda 900 UV/VIS/NIR, May 23 2018 11:23:04

0
0
3350/servo 860,8/2
0
0
UV/VIS
1
1
1
CommonBeamDepol,RBeamAtt,SBeamAtt,60mm sphere
0
0
0
0
Program
Program
3350/servo 860,8/2
3350/0,2 860,8/0,2
3350/0,2 860,8/0,2
0
1
 
 
 
0
 
860,8
319,2
860,8
Front
100
on
S:100 R:100
 
0
0
0
 
0
 
 
 
0
 
 
0
0
0
0
0
 
 
 
 
0
0


0
0
#HDR
-1
-1
#GR
nm
%T
1.0
0.0
2000,000000
-1,000000
1801
8
333,811838
56,959508
#DATA
2000,000000	89,299201
1999,000000	89,355543
1998,000000	89,363028
1997,000000	89,368173
1996,000000	89,389403
1995,000000	89,408298
1994,000000	89,415449
1993,000000	89,486596
1992,000000	89,399622
1991,000000	89,455528
1990,000000	89,475153
1989,000000	89,500852
1988,000000	89,542965
1987,000000	89,603524
1986,000000	89,584921
1985,000000	89,605791
1984,000000	89,662664
1983,000000	89,610093
1982,000000	89,644130
1981,000000	89,731826
1980,000000	89,779397
1979,000000	89,880701
1978,000000	89,892951
1977,000000	89,883216
1976,000000	89,909378
1975,000000	89,795315
1974,000000	89,744086
1973,000000	89,798895
1972,000000	89,833342
1971,000000	89,828796
1970,000000	89,897084
1969,000000	89,922864
1968,000000	89,919465
1967,000000	89,946552
1966,000000	90,080152
1965,000000	90,166685
1964,000000	90,336722
1963,000000	90,336344
1962,000000	90,399202
1961,000000	90,378107
1960,000000	90,406212
1959,000000	90,436876
1958,000000	90,455681
1957,000000	90,487383
1956,000000	90,490252
1955,000000	90,543294
1954,000000	90,537891
1953,000000	90,553486
1952,000000	90,595846
1951,000000	90,608823
1950,000000	90,607664
1949,000000	90,663168
1948,000000	90,650040
1947,000000	90,688495
1946,000000	90,679061
1945,000000	90,749217
1944,000000	90,722456
1943,000000	90,774436
1942,000000	90,797711
1941,000000	90,855339
1940,000000	90,869282
1939,000000	90,884459
1938,000000	90,919102
1937,000000	90,947384
1936,000000	90,932693
1935,000000	90,969473
1934,000000	90,967552
1933,000000	90,957985
1932,000000	91,032132
1931,000000	91,076733
1930,000000	90,979130
1929,000000	91,036761
1928,000000	91,059286
1927,000000	91,067585
1926,000000	91,089213
1925,000000	91,161307
1924,000000	91,143207
1923,000000	91,153196
1922,000000	91,146999
1921,000000	91,194005
1920,000000	91,172297
1919,000000	91,183035
1918,000000	91,177437
1917,000000	91,214199
1916,000000	91,250800
1915,000000	91,246823
1914,000000	91,244686
1913,000000	91,234894
1912,000000	91,296504
1911,000000	91,363143
1910,000000	91,393429
1909,000000	91,428129
1908,000000	91,501750
1907,000000	91,538960
1906,000000	91,552181
1905,000000	91,507942
1904,000000	91,497742
1903,000000	91,512463
1902,000000	91,476631
1901,000000	91,489076
1900,000000	91,411506
1899,000000	91,347765
1898,000000	91,319438
1897,000000	91,370727
1896,000000	91,358841
1895,000000	91,384181
1894,000000	91,404592
1893,000000	91,363967
1892,000000	91,313804
1891,000000	91,303435
1890,000000	91,280622
1889,000000	91,269649
1888,000000	91,258891
1887,000000	91,302645
1886,000000	91,323525
1885,000000	91,298276
1884,000000	91,272151
1883,000000	91,243166
1882,000000	91,233337
1881,000000	91,245705
1880,000000	91,235833
1879,000000	91,227885
1878,000000	91,233985
1877,000000	91,204349
1876,000000	91,198918
1875,000000	91,201091
1874,000000	91,153690
1873,000000	91,122019
1872,000000	91,124978
1871,000000	91,137705
1870,000000	91,108499
1869,000000	91,109818
1868,000000	91,101076
1867,000000	91,093153
1866,000000	91,109658
1865,000000	91,085782
1864,000000	91,096490
1863,000000	91,103669
1862,000000	91,068573
1861,000000	91,078382
1860,000000	91,097240
1859,000000	91,071309
1858,000000	91,047787
1857,000000	91,020206
1856,000000	91,029648
1855,000000	91,014819
1854,000000	90,981762
1853,000000	90,952335
1852,000000	90,953145
1851,000000	90,976595
1850,000000	90,935562
1849,000000	90,910738
1848,000000	90,887272
1847,000000	90,845861
1846,000000	90,838059
1845,000000	90,834878
1844,000000	90,800896
1843,000000	90,767450
1842,000000	90,765396
1841,000000	90,728236
1840,000000	90,714231
1839,000000	90,702151
1838,000000	90,636706
1837,000000	90,599806
1836,000000	90,601198
1835,000000	90,589589
1834,000000	90,561725
1833,000000	90,534119
1832,000000	90,508258
1831,000000	90,499658
1830,000000	90,483955
1829,000000	90,457323
1828,000000	90,451076
1827,000000	90,416904
1826,000000	90,365398
1825,000000	90,317661
1824,000000	90,343624
1823,000000	90,350215
1822,000000	90,286984
1821,000000	90,125899
1820,000000	90,003290
1819,000000	89,943555
1818,000000	89,912773
1817,000000	89,903688
1816,000000	89,865706
1815,000000	89,821673
1814,000000	89,799708
1813,000000	89,778727
1812,000000	89,733078
1811,000000	89,714218
1810,000000	89,689534
1809,000000	89,657301
1808,000000	89,631300
1807,000000	89,614338
1806,000000	89,584217
1805,000000	89,538759
1804,000000	89,512336
1803,000000	89,486356
1802,000000	89,459384
1801,000000	89,426859
1800,000000	89,376613
1799,000000	89,356781
1798,000000	89,357063
1797,000000	89,324087
1796,000000	89,311518
1795,000000	89,265680
1794,000000	89,236860
1793,000000	89,209549
1792,000000	89,196877
1791,000000	89,157372
1790,000000	89,116416
1789,000000	89,091240
1788,000000	89,078380
1787,000000	89,024030
1786,000000	89,023041
1785,000000	88,998805
1784,000000	88,975788
1783,000000	88,927206
1782,000000	88,906296
1781,000000	88,892383
1780,000000	88,890053
1779,000000	88,853806
1778,000000	88,823879
1777,000000	88,785623
1776,000000	88,777778
1775,000000	88,725136
1774,000000	88,709876
1773,000000	88,687182
1772,000000	88,684218
1771,000000	88,650964
1770,000000	88,613320
1769,000000	88,584739
1768,000000	88,586377
1767,000000	88,568829
1766,000000	88,524585
1765,000000	88,496734
1764,000000	88,488069
1763,000000	88,476326
1762,000000	88,482616
1761,000000	88,457931
1760,000000	88,441121
1759,000000	88,417336
1758,000000	88,419855
1757,000000	88,386826
1756,000000	88,354509
1755,000000	88,316734
1754,000000	88,310249
1753,000000	88,290483
1752,000000	88,285155
1751,000000	88,244662
1750,000000	88,260857
1749,000000	88,202359
1748,000000	88,205317
1747,000000	88,195242
1746,000000	88,173346
1745,000000	88,175971
1744,000000	88,139168
1743,000000	88,116767
1742,000000	88,098209
1741,000000	88,105189
1740,000000	88,074497
1739,000000	88,079949
1738,000000	88,065336
1737,000000	88,042466
1736,000000	88,020152
1735,000000	88,034685
1734,000000	88,025032
1733,000000	88,009336
1732,000000	88,020599
1731,000000	88,000047
1730,000000	87,985943
1729,000000	87,958182
1728,000000	87,949427
1727,000000	87,944926
1726,000000	87,937469
1725,000000	87,928490
1724,000000	87,922830
1723,000000	87,911618
1722,000000	87,934826
1721,000000	87,909727
1720,000000	87,910963
1719,000000	87,880632
1718,000000	87,882948
1717,000000	87,901031
1716,000000	87,882584
1715,000000	87,846235
1714,000000	87,854770
1713,000000	87,852270
1712,000000	87,845100
1711,000000	87,810428
1710,000000	87,808941
1709,000000	87,788331
1708,000000	87,766278
1707,000000	87,780527
1706,000000	87,783412
1705,000000	87,764907
1704,000000	87,747738
1703,000000	87,719900
1702,000000	87,710235
1701,000000	87,692637
1700,000000	87,720366
1699,000000	87,642049
1698,000000	87,672272
1697,000000	87,649991
1696,000000	87,686420
1695,000000	87,645523
1694,000000	87,657215
1693,000000	87,618514
1692,000000	87,624762
1691,000000	87,601239
1690,000000	87,600656
1689,000000	87,572698
1688,000000	87,619742
1687,000000	87,586434
1686,000000	87,631105
1685,000000	87,610099
1684,000000	87,647854
1683,000000	87,614322
1682,000000	87,639216
1681,000000	87,643083
1680,000000	87,662258
1679,000000	87,673440
1678,000000	87,682970
1677,000000	87,713749
1676,000000	87,723781
1675,000000	87,737680
1674,000000	87,760059
1673,000000	87,766627
1672,000000	87,820399
1671,000000	87,847345
1670,000000	87,882156
1669,000000	87,874122
1668,000000	87,907327
1667,000000	87,949575
1666,000000	87,979722
1665,000000	88,012475
1664,000000	88,039145
1663,000000	88,067685
1662,000000	88,098813
1661,000000	88,140036
1660,000000	88,165845
1659,000000	88,147267
1658,000000	88,204701
1657,000000	88,247006
1656,000000	88,249117
1655,000000	88,270370
1654,000000	88,324979
1653,000000	88,328174
1652,000000	88,350920
1651,000000	88,356647
1650,000000	88,390074
1649,000000	88,399207
1648,000000	88,424914
1647,000000	88,438631
1646,000000	88,462383
1645,000000	88,470468
1644,000000	88,501546
1643,000000	88,528032
1642,000000	88,543454
1641,000000	88,574676
1640,000000	88,600363
1639,000000	88,639595
1638,000000	88,671743
1637,000000	88,705625
1636,000000	88,727572
1635,000000	88,742918
1634,000000	88,767438
1633,000000	88,784286
1632,000000	88,835458
1631,000000	88,852088
1630,000000	88,900562
1629,000000	88,896808
1628,000000	88,927031
1627,000000	88,888456
1626,000000	88,768060
1625,000000	88,492308
1624,000000	88,353433
1623,000000	88,355006
1622,000000	88,399701
1621,000000	88,412938
1620,000000	88,433666
1619,000000	88,451106
1618,000000	88,474321
1617,000000	88,503437
1616,000000	88,550336
1615,000000	88,579365
1614,000000	88,609364
1613,000000	88,583372
1612,000000	88,772979
1611,000000	88,910691
1610,000000	88,944647
1609,000000	88,943835
1608,000000	88,964012
1607,000000	88,908161
1606,000000	88,762327
1605,000000	88,796209
1604,000000	88,827472
1603,000000	88,895081
1602,000000	89,048823
1601,000000	89,064130
1600,000000	89,022028
1599,000000	88,890221
1598,000000	88,896243
1597,000000	88,986886
1596,000000	89,155748
1595,000000	89,152954
1594,000000	89,105696
1593,000000	88,981105
1592,000000	88,985840
1591,000000	89,079432
1590,000000	89,233394
1589,000000	89,146847
1588,000000	89,010471
1587,000000	89,028140
1586,000000	89,128846
1585,000000	89,251824
1584,000000	89,172240
1583,000000	89,060848
1582,000000	89,154626
1581,000000	89,297124
1580,000000	89,276960
1579,000000	89,170036
1578,000000	89,132475
1577,000000	89,260114
1576,000000	89,262417
1575,000000	89,187854
1574,000000	89,046293
1573,000000	89,128710
1572,000000	89,264872
1571,000000	89,170921
1570,000000	89,132899
1569,000000	89,260059
1568,000000	89,254667
1567,000000	89,242694
1566,000000	89,135038
1565,000000	89,119913
1564,000000	89,243855
1563,000000	89,237148
1562,000000	89,242861
1561,000000	89,132251
1560,000000	89,094389
1559,000000	89,186899
1558,000000	89,153369
1557,000000	89,149771
1556,000000	89,158723
1555,000000	89,047357
1554,000000	88,930117
1553,000000	89,024667
1552,000000	89,121824
1551,000000	89,106637
1550,000000	89,089142
1549,000000	89,066335
1548,000000	89,051885
1547,000000	88,946062
1546,000000	88,828580
1545,000000	88,808336
1544,000000	88,889046
1543,000000	88,970861
1542,000000	88,955201
1541,000000	88,933686
1540,000000	88,908781
1539,000000	88,889919
1538,000000	88,877332
1537,000000	88,840018
1536,000000	88,792072
1535,000000	88,755380
1534,000000	88,730605
1533,000000	88,604064
1532,000000	88,476025
1531,000000	88,455321
1530,000000	88,545606
1529,000000	88,615744
1528,000000	88,581350
1527,000000	88,540132
1526,000000	88,512486
1525,000000	88,484402
1524,000000	88,451840
1523,000000	88,440779
1522,000000	88,409141
1521,000000	88,269914
1520,000000	88,265940
1519,000000	88,320428
1518,000000	88,286980
1517,000000	88,263708
1516,000000	88,231804
1515,000000	88,210181
1514,000000	88,064229
1513,000000	88,066103
1512,000000	88,110001
1511,000000	88,072182
1510,000000	88,038987
1509,000000	87,908162
1508,000000	87,932792
1507,000000	87,975977
1506,000000	87,949812
1505,000000	87,927351
1504,000000	87,900583
1503,000000	87,751935
1502,000000	87,760297
1501,000000	87,808990
1500,000000	87,778332
1499,000000	87,756829
1498,000000	87,718900
1497,000000	87,579027
1496,000000	87,632371
1495,000000	87,662076
1494,000000	87,635972
1493,000000	87,616338
1492,000000	87,578255
1491,000000	87,549531
1490,000000	87,516612
1489,000000	87,489104
1488,000000	87,365035
1487,000000	87,426223
1486,000000	87,478240
1485,000000	87,451053
1484,000000	87,416142
1483,000000	87,405043
1482,000000	87,375719
1481,000000	87,359694
1480,000000	87,344106
1479,000000	87,325223
1478,000000	87,299933
1477,000000	87,302210
1476,000000	87,258203
1475,000000	87,254826
1474,000000	87,243420
1473,000000	87,214581
1472,000000	87,186494
1471,000000	87,185501
1470,000000	87,184610
1469,000000	87,153698
1468,000000	87,148812
1467,000000	87,133581
1466,000000	87,110385
1465,000000	87,105804
1464,000000	87,078488
1463,000000	87,048440
1462,000000	87,043800
1461,000000	87,034901
1460,000000	87,043691
1459,000000	87,050786
1458,000000	87,037269
1457,000000	87,057244
1456,000000	87,052258
1455,000000	87,034494
1454,000000	87,035873
1453,000000	87,039239
1452,000000	87,064475
1451,000000	87,080668
1450,000000	87,067890
1449,000000	87,061789
1448,000000	87,080232
1447,000000	87,092309
1446,000000	87,080434
1445,000000	87,090977
1444,000000	87,108658
1443,000000	87,139517
1442,000000	87,113822
1441,000000	87,131697
1440,000000	87,125909
1439,000000	87,138413
1438,000000	87,152647
1437,000000	87,173845
1436,000000	87,173796
1435,000000	87,193523
1434,000000	87,202127
1433,000000	87,211193
1432,000000	87,210229
1431,000000	87,246581
1430,000000	87,252560
1429,000000	87,295377
1428,000000	87,320657
1427,000000	87,349748
1426,000000	87,360598
1425,000000	87,375066
1424,000000	87,371149
1423,000000	87,419115
1422,000000	87,403821
1421,000000	87,446258
1420,000000	87,483449
1419,000000	87,531015
1418,000000	87,516027
1417,000000	87,429233
1416,000000	87,570003
1415,000000	87,607422
1414,000000	87,626849
1413,000000	87,658716
1412,000000	87,538210
1411,000000	87,547298
1410,000000	87,551164
1409,000000	87,754759
1408,000000	87,757694
1407,000000	87,631181
1406,000000	87,788340
1405,000000	87,817058
1404,000000	87,815505
1403,000000	87,717540
1402,000000	87,728653
1401,000000	87,752525
1400,000000	87,948645
1399,000000	87,979847
1398,000000	88,003159
1397,000000	88,083971
1396,000000	88,092973
1395,000000	88,127130
1394,000000	88,118907
1393,000000	88,159628
1392,000000	88,128146
1391,000000	88,159932
1390,000000	88,191104
1389,000000	88,192972
1388,000000	88,219689
1387,000000	88,248655
1386,000000	88,261878
1385,000000	88,281737
1384,000000	88,314628
1383,000000	88,365158
1382,000000	88,378747
1381,000000	88,397561
1380,000000	88,403674
1379,000000	88,309322
1378,000000	88,332753
1377,000000	88,468711
1376,000000	88,481081
1375,000000	88,514056
1374,000000	88,494940
1373,000000	88,533186
1372,000000	88,491792
1371,000000	88,518472
1370,000000	88,513781
1369,000000	88,562999
1368,000000	88,556738
1367,000000	88,564919
1366,000000	88,564114
1365,000000	88,577263
1364,000000	88,576508
1363,000000	88,572471
1362,000000	88,564302
1361,000000	88,557730
1360,000000	88,526716
1359,000000	88,533268
1358,000000	88,506340
1357,000000	88,504027
1356,000000	88,463207
1355,000000	88,474192
1354,000000	88,500322
1353,000000	88,505787
1352,000000	88,446461
1351,000000	88,453524
1350,000000	88,469400
1349,000000	88,456329
1348,000000	88,455246
1347,000000	88,453523
1346,000000	88,456072
1345,000000	88,540547
1344,000000	88,415079
1343,000000	88,411556
1342,000000	88,371305
1341,000000	88,384557
1340,000000	88,454198
1339,000000	88,360904
1338,000000	88,332717
1337,000000	88,330099
1336,000000	88,304978
1335,000000	88,267047
1334,000000	88,245581
1333,000000	88,213575
1332,000000	88,173904
1331,000000	88,150092
1330,000000	88,149819
1329,000000	88,195607
1328,000000	88,160763
1327,000000	88,124309
1326,000000	88,106760
1325,000000	88,092641
1324,000000	88,004990
1323,000000	87,969935
1322,000000	87,877822
1321,000000	87,852437
1320,000000	87,826196
1319,000000	87,774906
1318,000000	87,738364
1317,000000	87,694000
1316,000000	87,634701
1315,000000	87,589349
1314,000000	87,527130
1313,000000	87,482542
1312,000000	87,442648
1311,000000	87,392589
1310,000000	87,350044
1309,000000	87,324901
1308,000000	87,303115
1307,000000	87,281252
1306,000000	87,248242
1305,000000	87,210144
1304,000000	87,149708
1303,000000	87,093896
1302,000000	87,043436
1301,000000	86,992648
1300,000000	86,932919
1299,000000	86,927433
1298,000000	86,935059
1297,000000	86,944641
1296,000000	86,843686
1295,000000	86,798358
1294,000000	86,760306
1293,000000	86,774620
1292,000000	86,765346
1291,000000	86,652550
1290,000000	86,614014
1289,000000	86,592207
1288,000000	86,573682
1287,000000	86,578641
1286,000000	86,573602
1285,000000	86,476205
1284,000000	86,466789
1283,000000	86,446827
1282,000000	86,417453
1281,000000	86,397193
1280,000000	86,370536
1279,000000	86,353198
1278,000000	86,354645
1277,000000	86,343475
1276,000000	86,311779
1275,000000	86,295027
1274,000000	86,277925
1273,000000	86,259914
1272,000000	86,249494
1271,000000	86,241791
1270,000000	86,233400
1269,000000	86,219679
1268,000000	86,196648
1267,000000	86,188954
1266,000000	86,183672
1265,000000	86,203546
1264,000000	86,219384
1263,000000	86,251512
1262,000000	86,300970
1261,000000	86,297525
1260,000000	86,300852
1259,000000	86,312515
1258,000000	86,305528
1257,000000	86,304966
1256,000000	86,308707
1255,000000	86,291091
1254,000000	86,261975
1253,000000	86,275649
1252,000000	86,293190
1251,000000	86,288931
1250,000000	86,303679
1249,000000	86,322395
1248,000000	86,336556
1247,000000	86,385965
1246,000000	86,412590
1245,000000	86,438196
1244,000000	86,470234
1243,000000	86,498848
1242,000000	86,520401
1241,000000	86,532855
1240,000000	86,553264
1239,000000	86,601415
1238,000000	86,644511
1237,000000	86,669450
1236,000000	86,690726
1235,000000	86,724255
1234,000000	86,761773
1233,000000	86,791718
1232,000000	86,831410
1231,000000	86,876481
1230,000000	86,912264
1229,000000	86,931246
1228,000000	86,975886
1227,000000	87,024160
1226,000000	87,055617
1225,000000	87,095218
1224,000000	87,143711
1223,000000	87,174237
1222,000000	87,210638
1221,000000	87,247208
1220,000000	87,331938
1219,000000	87,421183
1218,000000	87,464383
1217,000000	87,515573
1216,000000	87,556146
1215,000000	87,560067
1214,000000	87,537302
1213,000000	87,531252
1212,000000	87,572579
1211,000000	87,618762
1210,000000	87,651336
1209,000000	87,653141
1208,000000	87,674859
1207,000000	87,703941
1206,000000	87,728021
1205,000000	87,744168
1204,000000	87,752769
1203,000000	87,755464
1202,000000	87,776038
1201,000000	87,808174
1200,000000	87,838400
1199,000000	87,847810
1198,000000	87,877502
1197,000000	87,905354
1196,000000	87,909006
1195,000000	87,920482
1194,000000	87,924736
1193,000000	87,932358
1192,000000	87,948360
1191,000000	87,942834
1190,000000	87,919168
1189,000000	87,911673
1188,000000	87,916733
1187,000000	87,896736
1186,000000	87,901537
1185,000000	87,883340
1184,000000	87,865463
1183,000000	87,847813
1182,000000	87,832194
1181,000000	87,812807
1180,000000	87,797028
1179,000000	87,771504
1178,000000	87,739165
1177,000000	87,702903
1176,000000	87,675384
1175,000000	87,650565
1174,000000	87,625688
1173,000000	87,582911
1172,000000	87,544531
1171,000000	87,502936
1170,000000	87,489485
1169,000000	87,448889
1168,000000	87,404990
1167,000000	87,359965
1166,000000	87,324380
1165,000000	87,317492
1164,000000	87,299102
1163,000000	87,242671
1162,000000	87,192558
1161,000000	87,105269
1160,000000	87,043402
1159,000000	86,973991
1158,000000	86,928543
1157,000000	86,878600
1156,000000	86,823628
1155,000000	86,753828
1154,000000	86,782718
1153,000000	86,773876
1152,000000	86,727729
1151,000000	86,619738
1150,000000	86,563400
1149,000000	86,494928
1148,000000	86,453037
1147,000000	86,392242
1146,000000	86,364349
1145,000000	86,308344
1144,000000	86,335501
1143,000000	86,280282
1142,000000	86,255525
1141,000000	86,216721
1140,000000	86,068777
1139,000000	86,007482
1138,000000	85,983248
1137,000000	85,950429
1136,000000	85,936010
1135,000000	85,895134
1134,000000	85,896139
1133,000000	85,856893
1132,000000	85,898540
1131,000000	85,875098
1130,000000	85,812763
1129,000000	85,771602
1128,000000	85,742794
1127,000000	85,713865
1126,000000	85,712480
1125,000000	85,729350
1124,000000	85,702775
1123,000000	85,633282
1122,000000	85,637940
1121,000000	85,606330
1120,000000	85,635389
1119,000000	85,629750
1118,000000	85,627155
1117,000000	85,598872
1116,000000	85,614383
1115,000000	85,611541
1114,000000	85,644208
1113,000000	85,644453
1112,000000	85,666994
1111,000000	85,668815
1110,000000	85,700233
1109,000000	85,710469
1108,000000	85,730218
1107,000000	85,730855
1106,000000	85,775082
1105,000000	85,808525
1104,000000	85,826879
1103,000000	85,832465
1102,000000	85,894683
1101,000000	85,925849
1100,000000	85,954238
1099,000000	86,071132
1098,000000	86,108648
1097,000000	86,051567
1096,000000	86,108594
1095,000000	86,147027
1094,000000	86,202639
1093,000000	86,215552
1092,000000	86,266556
1091,000000	86,408753
1090,000000	86,438703
1089,000000	86,472095
1088,000000	86,422629
1087,000000	86,455017
1086,000000	86,507770
1085,000000	86,547006
1084,000000	86,611944
1083,000000	86,739351
1082,000000	86,792759
1081,000000	86,724892
1080,000000	86,749718
1079,000000	86,808049
1078,000000	86,862377
1077,000000	86,886630
1076,000000	86,986812
1075,000000	86,899112
1074,000000	86,929080
1073,000000	86,975654
1072,000000	87,006151
1071,000000	87,011682
1070,000000	87,059339
1069,000000	87,148409
1068,000000	87,112898
1067,000000	87,095047
1066,000000	87,140438
1065,000000	87,132599
1064,000000	87,166322
1063,000000	87,165458
1062,000000	87,163333
1061,000000	87,251478
1060,000000	87,160224
1059,000000	87,148549
1058,000000	87,149072
1057,000000	87,121736
1056,000000	87,092801
1055,000000	87,169547
1054,000000	87,078559
1053,000000	87,069455
1052,000000	87,046502
1051,000000	87,018637
1050,000000	87,065837
1049,000000	86,930015
1048,000000	86,875061
1047,000000	86,886089
1046,000000	86,861252
1045,000000	86,890936
1044,000000	86,786512
1043,000000	86,728804
1042,000000	86,710521
1041,000000	86,642238
1040,000000	86,595253
1039,000000	86,534461
1038,000000	86,492569
1037,000000	86,469316
1036,000000	86,512657
1035,000000	86,344091
1034,000000	86,306701
1033,000000	86,250132
1032,000000	86,192091
1031,000000	86,124625
1030,000000	86,073138
1029,000000	86,011328
1028,000000	85,968098
1027,000000	85,924663
1026,000000	85,873004
1025,000000	85,806967
1024,000000	85,740961
1023,000000	85,698325
1022,000000	85,647761
1021,000000	85,514718
1020,000000	85,569344
1019,000000	85,546517
1018,000000	85,579104
1017,000000	85,462850
1016,000000	85,419396
1015,000000	85,331538
1014,000000	85,221612
1013,000000	85,321728
1012,000000	85,375976
1011,000000	85,233234
1010,000000	85,223973
1009,000000	85,147257
1008,000000	85,045894
1007,000000	85,151270
1006,000000	85,165776
1005,000000	85,164993
1004,000000	85,153943
1003,000000	85,092872
1002,000000	85,029488
1001,000000	85,135033
1000,000000	85,154230
999,000000	85,146580
998,000000	85,126660
997,000000	85,092375
996,000000	85,258880
995,000000	85,339421
994,000000	85,192259
993,000000	85,090867
992,000000	85,196636
991,000000	85,331598
990,000000	85,308095
989,000000	85,208594
988,000000	85,300234
987,000000	85,435737
986,000000	85,487627
985,000000	85,447935
984,000000	85,356942
983,000000	85,457579
982,000000	85,634537
981,000000	85,673968
980,000000	85,661033
979,000000	85,591914
978,000000	85,697290
977,000000	85,861637
976,000000	85,846460
975,000000	85,775593
974,000000	85,824323
973,000000	85,887296
972,000000	86,020906
971,000000	86,116823
970,000000	86,123488
969,000000	86,253336
968,000000	86,348672
967,000000	86,427276
966,000000	86,559677
965,000000	86,638800
964,000000	86,690752
963,000000	86,710992
962,000000	86,717098
961,000000	86,731378
960,000000	86,746489
959,000000	86,734276
958,000000	86,743202
957,000000	86,752146
956,000000	86,743354
955,000000	86,727017
954,000000	86,720063
953,000000	86,699340
952,000000	86,679444
951,000000	86,668720
950,000000	86,679234
949,000000	86,646199
948,000000	86,602164
947,000000	86,577168
946,000000	86,551124
945,000000	86,505250
944,000000	86,462220
943,000000	86,428460
942,000000	86,391124
941,000000	86,343708
940,000000	86,315598
939,000000	86,266962
938,000000	86,196641
937,000000	86,150774
936,000000	86,113444
935,000000	86,050379
934,000000	86,007650
933,000000	85,972628
932,000000	85,925203
931,000000	85,853886
930,000000	85,797778
929,000000	85,779839
928,000000	85,741909
927,000000	85,709322
926,000000	85,679123
925,000000	85,629571
924,000000	85,578470
923,000000	85,561155
922,000000	85,532639
921,000000	85,509324
920,000000	85,485796
919,000000	85,442654
918,000000	85,412695
917,000000	85,405980
916,000000	85,411655
915,000000	85,394123
914,000000	85,345622
913,000000	85,342059
912,000000	85,337267
911,000000	85,340735
910,000000	85,325614
909,000000	85,319798
908,000000	85,356563
907,000000	85,401411
906,000000	85,391692
905,000000	85,403717
904,000000	85,420275
903,000000	85,435997
902,000000	85,443208
901,000000	85,443395
900,000000	85,474976
899,000000	85,534402
898,000000	85,572834
897,000000	85,621809
896,000000	85,657893
895,000000	85,662921
894,000000	85,675478
893,000000	85,752423
892,000000	85,772598
891,000000	85,820831
890,000000	85,847251
889,000000	85,936866
888,000000	85,918056
887,000000	85,941260
886,000000	85,954822
885,000000	86,055039
884,000000	86,028303
883,000000	86,071902
882,000000	86,098628
881,000000	86,116676
880,000000	86,127739
879,000000	86,128576
878,000000	86,090153
877,000000	86,147954
876,000000	86,158860
875,000000	86,209413
874,000000	86,080554
873,000000	86,150964
872,000000	86,179541
871,000000	86,149552
870,000000	86,180688
869,000000	86,197792
868,000000	86,126278
867,000000	86,117432
866,000000	85,967977
865,000000	85,977221
864,000000	85,879543
863,000000	85,900858
862,000000	85,899115
861,000000	86,082047
860,000000	85,914091
859,000000	85,800770
858,000000	85,939341
857,000000	85,751506
856,000000	85,435372
855,000000	85,643417
854,000000	85,245768
853,000000	85,279213
852,000000	85,553494
851,000000	85,627010
850,000000	84,933898
849,000000	85,368545
848,000000	85,290959
847,000000	85,300780
846,000000	85,041600
845,000000	85,301017
844,000000	85,078283
843,000000	85,003524
842,000000	85,111515
841,000000	84,979485
840,000000	85,005733
839,000000	84,781022
838,000000	84,812956
837,000000	85,015204
836,000000	85,108962
835,000000	84,941225
834,000000	84,934479
833,000000	85,050686
832,000000	85,183622
831,000000	85,126810
830,000000	85,153721
829,000000	85,106529
828,000000	85,068574
827,000000	85,240168
826,000000	85,063543
825,000000	85,154198
824,000000	85,339983
823,000000	85,275708
822,000000	85,385626
821,000000	85,339291
820,000000	85,437228
819,000000	85,307249
818,000000	85,542171
817,000000	85,799205
816,000000	85,836749
815,000000	85,664605
814,000000	85,757446
813,000000	86,016531
812,000000	86,044804
811,000000	85,897016
810,000000	85,942846
809,000000	86,226826
808,000000	86,200099
807,000000	85,811792
806,000000	85,751235
805,000000	85,910932
804,000000	85,967684
803,000000	85,920299
802,000000	85,985305
801,000000	85,995868
800,000000	85,898230
799,000000	85,576747
798,000000	85,959505
797,000000	85,694832
796,000000	85,711267
795,000000	85,760612
794,000000	85,531352
793,000000	85,636019
792,000000	85,425628
791,000000	85,309414
790,000000	85,207704
789,000000	85,206562
788,000000	85,107197
787,000000	85,123142
786,000000	85,068071
785,000000	84,988140
784,000000	84,996197
783,000000	84,911383
782,000000	84,966936
781,000000	84,769906
780,000000	84,866185
779,000000	84,825495
778,000000	85,029168
777,000000	84,897313
776,000000	84,752331
775,000000	84,649252
774,000000	84,842871
773,000000	84,908228
772,000000	84,850433
771,000000	84,681078
770,000000	84,862307
769,000000	84,826219
768,000000	84,898353
767,000000	84,935628
766,000000	84,939915
765,000000	85,121086
764,000000	85,095957
763,000000	85,265754
762,000000	85,277042
761,000000	85,345949
760,000000	85,389305
759,000000	85,405240
758,000000	85,480025
757,000000	85,315235
756,000000	85,575250
755,000000	85,517276
754,000000	85,749783
753,000000	85,774958
752,000000	85,551249
751,000000	85,521200
750,000000	85,650534
749,000000	85,730001
748,000000	85,684447
747,000000	85,720518
746,000000	85,586622
745,000000	85,590488
744,000000	85,535098
743,000000	85,702497
742,000000	85,609795
741,000000	85,476463
740,000000	85,445659
739,000000	85,332798
738,000000	85,326993
737,000000	85,323407
736,000000	85,207442
735,000000	85,159068
734,000000	84,974235
733,000000	84,981130
732,000000	84,898873
731,000000	84,873106
730,000000	84,730699
729,000000	84,752934
728,000000	84,630666
727,000000	84,456426
726,000000	84,463869
725,000000	84,593179
724,000000	84,504603
723,000000	84,474307
722,000000	84,459457
721,000000	84,414069
720,000000	84,383781
719,000000	84,466182
718,000000	84,562120
717,000000	84,561285
716,000000	84,583776
715,000000	84,620285
714,000000	84,700170
713,000000	84,675316
712,000000	84,750823
711,000000	84,772444
710,000000	84,903926
709,000000	84,996623
708,000000	84,943802
707,000000	84,918162
706,000000	84,969610
705,000000	85,174928
704,000000	85,110178
703,000000	85,184180
702,000000	85,220984
701,000000	85,278832
700,000000	85,278696
699,000000	85,303714
698,000000	85,387856
697,000000	85,284167
696,000000	85,268179
695,000000	85,311025
694,000000	85,255005
693,000000	85,264274
692,000000	85,127043
691,000000	85,045180
690,000000	85,057018
689,000000	84,912010
688,000000	84,829706
687,000000	84,761966
686,000000	84,683750
685,000000	84,588048
684,000000	84,456407
683,000000	84,396204
682,000000	84,399408
681,000000	84,299948
680,000000	84,314035
679,000000	84,244033
678,000000	84,197313
677,000000	84,175263
676,000000	84,104549
675,000000	84,066519
674,000000	84,082272
673,000000	84,133825
672,000000	84,195413
671,000000	84,205946
670,000000	84,269616
669,000000	84,340556
668,000000	84,323744
667,000000	84,313393
666,000000	84,337364
665,000000	84,443419
664,000000	84,521898
663,000000	84,561516
662,000000	84,558532
661,000000	84,571611
660,000000	84,688048
659,000000	84,761244
658,000000	84,695813
657,000000	84,681642
656,000000	84,747698
655,000000	84,677467
654,000000	84,645025
653,000000	84,690390
652,000000	84,748461
651,000000	84,690556
650,000000	84,582795
649,000000	84,553849
648,000000	84,523089
647,000000	84,438098
646,000000	84,386103
645,000000	84,371526
644,000000	84,302446
643,000000	84,208683
642,000000	84,131869
641,000000	84,048116
640,000000	84,040221
639,000000	83,994852
638,000000	83,929827
637,000000	83,858451
636,000000	83,865059
635,000000	83,912441
634,000000	83,889198
633,000000	83,915536
632,000000	83,927573
631,000000	83,934725
630,000000	83,966532
629,000000	83,987536
628,000000	84,029176
627,000000	84,052597
626,000000	84,114782
625,000000	84,189550
624,000000	84,202017
623,000000	84,201254
622,000000	84,244443
621,000000	84,284141
620,000000	84,259515
619,000000	84,271424
618,000000	84,292824
617,000000	84,272231
616,000000	84,272954
615,000000	84,197583
614,000000	84,154882
613,000000	84,107512
612,000000	84,094254
611,000000	84,034397
610,000000	83,999723
609,000000	83,993746
608,000000	83,939864
607,000000	83,798063
606,000000	83,733448
605,000000	83,722433
604,000000	83,675374
603,000000	83,665677
602,000000	83,641693
601,000000	83,619100
600,000000	83,651431
599,000000	83,675866
598,000000	83,648892
597,000000	83,652300
596,000000	83,664134
595,000000	83,725228
594,000000	83,774158
593,000000	83,760597
592,000000	83,821464
591,000000	83,829361
590,000000	83,889108
589,000000	83,908406
588,000000	83,917126
587,000000	83,928044
586,000000	83,868015
585,000000	83,874248
584,000000	83,848743
583,000000	83,794988
582,000000	83,742435
581,000000	83,727540
580,000000	83,703429
579,000000	83,626639
578,000000	83,530329
577,000000	83,497825
576,000000	83,468576
575,000000	83,445128
574,000000	83,356654
573,000000	83,380612
572,000000	83,337094
571,000000	83,243730
570,000000	83,295222
569,000000	83,248320
568,000000	83,269522
567,000000	83,317445
566,000000	83,354480
565,000000	83,435030
564,000000	83,459169
563,000000	83,464520
562,000000	83,506386
561,000000	83,708035
560,000000	83,755933
559,000000	83,785078
558,000000	83,717950
557,000000	83,718271
556,000000	83,712586
555,000000	83,756403
554,000000	83,703095
553,000000	83,648176
552,000000	83,576039
551,000000	83,454697
550,000000	83,498006
549,000000	83,384607
548,000000	83,355698
547,000000	83,236977
546,000000	83,207178
545,000000	83,182741
544,000000	83,204355
543,000000	83,143909
542,000000	83,107536
541,000000	83,160504
540,000000	83,164513
539,000000	83,255589
538,000000	83,268180
537,000000	83,320879
536,000000	83,365141
535,000000	83,452235
534,000000	83,425010
533,000000	83,356087
532,000000	83,384174
531,000000	83,362761
530,000000	83,370301
529,000000	83,346842
528,000000	83,235037
527,000000	83,191449
526,000000	83,143369
525,000000	83,065391
524,000000	82,974287
523,000000	82,963020
522,000000	82,898650
521,000000	82,804516
520,000000	82,779397
519,000000	82,788943
518,000000	82,741607
517,000000	82,755139
516,000000	82,776093
515,000000	82,745959
514,000000	82,779985
513,000000	82,768730
512,000000	82,741720
511,000000	82,779826
510,000000	82,762474
509,000000	82,685393
508,000000	82,641590
507,000000	82,588654
506,000000	82,550001
505,000000	82,457358
504,000000	82,383935
503,000000	82,429847
502,000000	82,291513
501,000000	82,294743
500,000000	82,280593
499,000000	82,289274
498,000000	82,260883
497,000000	82,345624
496,000000	82,337600
495,000000	82,389524
494,000000	82,402349
493,000000	82,467553
492,000000	82,561431
491,000000	82,573031
490,000000	82,579065
489,000000	82,568437
488,000000	82,477735
487,000000	82,443007
486,000000	82,408082
485,000000	82,331691
484,000000	82,322355
483,000000	82,391710
482,000000	82,302511
481,000000	82,202606
480,000000	82,134740
479,000000	82,083205
478,000000	82,090371
477,000000	82,017428
476,000000	81,958058
475,000000	81,969849
474,000000	81,915171
473,000000	81,919224
472,000000	81,833610
471,000000	81,756546
470,000000	81,677655
469,000000	81,541123
468,000000	81,405679
467,000000	81,287244
466,000000	81,238555
465,000000	81,165683
464,000000	81,072431
463,000000	81,011421
462,000000	81,054705
461,000000	80,961091
460,000000	80,966494
459,000000	80,939818
458,000000	80,910035
457,000000	80,920088
456,000000	80,972280
455,000000	80,874567
454,000000	80,727373
453,000000	80,623248
452,000000	80,487060
451,000000	80,414586
450,000000	80,342552
449,000000	80,280843
448,000000	80,177326
447,000000	80,113118
446,000000	80,179707
445,000000	80,209066
444,000000	80,251397
443,000000	80,090728
442,000000	79,928747
441,000000	79,805166
440,000000	79,628776
439,000000	79,448461
438,000000	79,250131
437,000000	79,049522
436,000000	78,930049
435,000000	78,818586
434,000000	78,651423
433,000000	78,607426
432,000000	78,372969
431,000000	78,093571
430,000000	77,649918
429,000000	77,350646
428,000000	76,857481
427,000000	76,231173
426,000000	75,631192
425,000000	74,839696
424,000000	74,034872
423,000000	73,055966
422,000000	71,913059
421,000000	70,581313
420,000000	69,062930
419,000000	67,569536
418,000000	66,006683
417,000000	64,526531
416,000000	63,095267
415,000000	61,730196
414,000000	60,670688
413,000000	59,625341
412,000000	58,777949
411,000000	58,188756
410,000000	57,699297
409,000000	57,273726
408,000000	57,067597
407,000000	57,012862
406,000000	56,959508
405,000000	57,007432
404,000000	57,107217
403,000000	57,257563
402,000000	57,461382
401,000000	57,651537
400,000000	57,815635
399,000000	58,038393
398,000000	58,243742
397,000000	58,534770
396,000000	58,760776
395,000000	58,942132
394,000000	59,142831
393,000000	59,289756
392,000000	59,497860
391,000000	59,633598
390,000000	59,793674
389,000000	59,926806
388,000000	60,095366
387,000000	60,364872
386,000000	60,535172
385,000000	60,741667
384,000000	60,880948
383,000000	61,011648
382,000000	61,251528
381,000000	61,481045
380,000000	61,773339
379,000000	62,018679
378,000000	62,114770
377,000000	62,228300
376,000000	62,301552
375,000000	63,035300
374,000000	63,802027
373,000000	64,610666
372,000000	65,294501
371,000000	65,942687
370,000000	66,788301
369,000000	67,606089
368,000000	68,370903
367,000000	69,220357
366,000000	70,259754
365,000000	71,214356
364,000000	72,148457
363,000000	72,728355
362,000000	73,119677
361,000000	73,485923
360,000000	74,373564
359,000000	74,972709
358,000000	75,245670
357,000000	75,736710
356,000000	76,198303
355,000000	76,828303
354,000000	77,429180
353,000000	78,251378
352,000000	78,934838
351,000000	79,059840
350,000000	79,041958
349,000000	79,488185
348,000000	80,069864
347,000000	80,590979
346,000000	80,785072
345,000000	81,296806
344,000000	81,673763
343,000000	81,229878
342,000000	81,085173
341,000000	81,038725
340,000000	80,962747
339,000000	81,377709
338,000000	81,379703
337,000000	81,218795
336,000000	81,329787
335,000000	81,284832
334,000000	81,572674
333,000000	81,156337
332,000000	79,979759
331,000000	80,033265
330,000000	80,325622
329,000000	80,105179
328,000000	80,007585
327,000000	79,838176
326,000000	79,717424
325,000000	79,081004
324,000000	78,913024
323,000000	79,267667
322,000000	78,880733
321,000000	78,664902
320,000000	78,754251
319,000000	79,227616
318,000000	79,684219
317,000000	79,822235
316,000000	79,793038
315,000000	79,668752
314,000000	79,718376
313,000000	79,783683
312,000000	79,858901
311,000000	79,733227
310,000000	79,879358
309,000000	80,311518
308,000000	80,831633
307,000000	81,343280
306,000000	81,984001
305,000000	82,824513
304,000000	83,409748
303,000000	83,857284
302,000000	84,339334
301,000000	84,665883
300,000000	84,933230
299,000000	85,225726
298,000000	85,671259
297,000000	86,399811
296,000000	87,153843
295,000000	87,701453
294,000000	88,342909
293,000000	89,053213
292,000000	89,845152
291,000000	90,713776
290,000000	91,723711
289,000000	92,518489
288,000000	93,329896
287,000000	94,193589
286,000000	95,071719
285,000000	96,009647
284,000000	96,818645
283,000000	97,504969
282,000000	98,022609
281,000000	98,495923
280,000000	98,946863
279,000000	99,446243
278,000000	99,915341
277,000000	100,195281
276,000000	100,500285
275,000000	100,641060
274,000000	100,903466
273,000000	101,149818
272,000000	101,435515
271,000000	101,493891
270,000000	101,570346
269,000000	101,673954
268,000000	101,714629
267,000000	101,950899
266,000000	102,102525
265,000000	102,374262
264,000000	102,998030
263,000000	103,645197
262,000000	104,265174
261,000000	104,949021
260,000000	105,726401
259,000000	106,659666
258,000000	107,470498
257,000000	108,477153
256,000000	109,824469
255,000000	111,211029
254,000000	112,431947
253,000000	113,945345
252,000000	115,485568
251,000000	117,402819
250,000000	119,131889
249,000000	120,927021
248,000000	122,306447
247,000000	123,629347
246,000000	125,161042
245,000000	126,776816
244,000000	128,420275
243,000000	130,520215
242,000000	132,813299
241,000000	135,084561
240,000000	136,948945
239,000000	139,263899
238,000000	141,686300
237,000000	144,696848
236,000000	148,413026
235,000000	151,176669
234,000000	156,443581
233,000000	160,018660
232,000000	163,157128
231,000000	166,254075
230,000000	169,439099
229,000000	172,867693
228,000000	176,290394
227,000000	179,627143
226,000000	182,980713
225,000000	186,381833
224,000000	189,343505
223,000000	192,825699
222,000000	195,730426
221,000000	198,337449
220,000000	201,198810
219,000000	204,021053
218,000000	207,154531
217,000000	210,161390
216,000000	212,796704
215,000000	215,866378
214,000000	218,442658
213,000000	221,561124
212,000000	226,184260
211,000000	230,985762
210,000000	235,698035
209,000000	242,194106
208,000000	248,077094
207,000000	255,177574
206,000000	263,830771
205,000000	273,543269
204,000000	282,801544
203,000000	294,621795
202,000000	305,934847
201,000000	319,767691
200,000000	333,811838
