PE UV       SUBTECH     SPECTRUM    ASCII       PEDS        4.00        
   -1
Vidro - V.Sample.asc
22/01/26
16:08:36.00
22/01/26
16:08:36.00
Administrator

200,000000
1
Lambda 1050
1050L1808311
PerkinElmer UV WinLab 6.4.0.973 / 2.02.11 Lambda 900 UV/VIS/NIR, May 23 2018 11:23:04

0
0
3350/servo 860,8/2
0
0
UV/VIS
1
1
1
CommonBeamDepol,RBeamAtt,SBeamAtt,60mm sphere
0
0
0
0
Program
Program
3350/servo 860,8/2
3350/0,2 860,8/0,2
3350/0,2 860,8/0,2
0
1
 
 
 
0
 
860,8
319,2
860,8
Front
100
on
S:100 R:100
 
0
0
0
 
0
 
 
 
0
 
 
0
0
0
0
0
 
 
 
 
0
0


0
0
#HDR
-1
-1
#GR
nm
%T
1.0
0.0
2000,000000
-1,000000
1801
8
313,857653
52,143790
#DATA
2000,000000	81,286920
1999,000000	81,316809
1998,000000	81,342118
1997,000000	81,317681
1996,000000	81,317821
1995,000000	81,351578
1994,000000	81,349175
1993,000000	81,404120
1992,000000	81,382054
1991,000000	81,415389
1990,000000	81,411019
1989,000000	81,450249
1988,000000	81,493140
1987,000000	81,551034
1986,000000	81,526494
1985,000000	81,543421
1984,000000	81,579061
1983,000000	81,586998
1982,000000	81,535768
1981,000000	81,625042
1980,000000	81,722125
1979,000000	81,779906
1978,000000	81,760448
1977,000000	81,808982
1976,000000	81,804110
1975,000000	81,703103
1974,000000	81,648674
1973,000000	81,747379
1972,000000	81,690309
1971,000000	81,749014
1970,000000	81,730286
1969,000000	81,780300
1968,000000	81,738670
1967,000000	81,815666
1966,000000	81,785529
1965,000000	81,845380
1964,000000	81,838803
1963,000000	81,869579
1962,000000	81,912859
1961,000000	81,907724
1960,000000	81,861074
1959,000000	81,923281
1958,000000	81,918665
1957,000000	81,972925
1956,000000	81,966324
1955,000000	82,030404
1954,000000	82,013978
1953,000000	82,057574
1952,000000	82,022626
1951,000000	82,049560
1950,000000	82,084464
1949,000000	82,096823
1948,000000	82,105077
1947,000000	82,135980
1946,000000	82,103061
1945,000000	82,178483
1944,000000	82,184904
1943,000000	82,184918
1942,000000	82,195574
1941,000000	82,236981
1940,000000	82,240369
1939,000000	82,259170
1938,000000	82,277004
1937,000000	82,294042
1936,000000	82,278498
1935,000000	82,294619
1934,000000	82,335131
1933,000000	82,320830
1932,000000	82,358368
1931,000000	82,384212
1930,000000	82,341363
1929,000000	82,333296
1928,000000	82,337691
1927,000000	82,404626
1926,000000	82,377520
1925,000000	82,430949
1924,000000	82,421869
1923,000000	82,456641
1922,000000	82,384085
1921,000000	82,445766
1920,000000	82,439672
1919,000000	82,478584
1918,000000	82,488319
1917,000000	82,514424
1916,000000	82,443345
1915,000000	82,490505
1914,000000	82,521359
1913,000000	82,469356
1912,000000	82,483776
1911,000000	82,545824
1910,000000	82,559944
1909,000000	82,627577
1908,000000	82,679555
1907,000000	82,696159
1906,000000	82,701310
1905,000000	82,691945
1904,000000	82,656370
1903,000000	82,647490
1902,000000	82,606782
1901,000000	82,592664
1900,000000	82,545350
1899,000000	82,516265
1898,000000	82,472278
1897,000000	82,478560
1896,000000	82,458092
1895,000000	82,476245
1894,000000	82,484990
1893,000000	82,479993
1892,000000	82,428320
1891,000000	82,424398
1890,000000	82,390248
1889,000000	82,371623
1888,000000	82,361921
1887,000000	82,368308
1886,000000	82,376476
1885,000000	82,363245
1884,000000	82,324110
1883,000000	82,320943
1882,000000	82,288476
1881,000000	82,267632
1880,000000	82,226924
1879,000000	82,200958
1878,000000	82,193938
1877,000000	82,162415
1876,000000	82,088342
1875,000000	82,108316
1874,000000	82,095888
1873,000000	82,050484
1872,000000	82,009024
1871,000000	82,020613
1870,000000	81,986418
1869,000000	81,964042
1868,000000	81,988759
1867,000000	81,990616
1866,000000	82,017207
1865,000000	82,007510
1864,000000	82,007504
1863,000000	82,029338
1862,000000	82,000191
1861,000000	81,992133
1860,000000	81,992123
1859,000000	81,979743
1858,000000	81,960735
1857,000000	81,934723
1856,000000	81,923803
1855,000000	81,907488
1854,000000	81,886479
1853,000000	81,834411
1852,000000	81,828534
1851,000000	81,814242
1850,000000	81,787186
1849,000000	81,769544
1848,000000	81,744277
1847,000000	81,719087
1846,000000	81,706599
1845,000000	81,674705
1844,000000	81,620298
1843,000000	81,584336
1842,000000	81,572985
1841,000000	81,545618
1840,000000	81,523078
1839,000000	81,489238
1838,000000	81,441849
1837,000000	81,413234
1836,000000	81,399805
1835,000000	81,377884
1834,000000	81,365033
1833,000000	81,332010
1832,000000	81,329040
1831,000000	81,298803
1830,000000	81,271296
1829,000000	81,267292
1828,000000	81,239916
1827,000000	81,196675
1826,000000	81,159269
1825,000000	81,142537
1824,000000	81,138503
1823,000000	81,090273
1822,000000	81,054684
1821,000000	80,915194
1820,000000	80,824548
1819,000000	80,771398
1818,000000	80,744529
1817,000000	80,736430
1816,000000	80,704015
1815,000000	80,668831
1814,000000	80,668554
1813,000000	80,644711
1812,000000	80,609125
1811,000000	80,566726
1810,000000	80,536455
1809,000000	80,504033
1808,000000	80,492193
1807,000000	80,457462
1806,000000	80,431551
1805,000000	80,407188
1804,000000	80,391144
1803,000000	80,354205
1802,000000	80,337997
1801,000000	80,299053
1800,000000	80,264617
1799,000000	80,242965
1798,000000	80,241929
1797,000000	80,222912
1796,000000	80,198586
1795,000000	80,174337
1794,000000	80,145749
1793,000000	80,099082
1792,000000	80,099835
1791,000000	80,062757
1790,000000	80,032890
1789,000000	79,998075
1788,000000	79,995461
1787,000000	79,959643
1786,000000	79,957512
1785,000000	79,922857
1784,000000	79,886875
1783,000000	79,861136
1782,000000	79,868336
1781,000000	79,821406
1780,000000	79,823246
1779,000000	79,790960
1778,000000	79,777854
1777,000000	79,717193
1776,000000	79,742974
1775,000000	79,715912
1774,000000	79,714093
1773,000000	79,688081
1772,000000	79,660738
1771,000000	79,653465
1770,000000	79,643614
1769,000000	79,604302
1768,000000	79,616431
1767,000000	79,592588
1766,000000	79,587139
1765,000000	79,554640
1764,000000	79,574430
1763,000000	79,577441
1762,000000	79,580592
1761,000000	79,521204
1760,000000	79,543137
1759,000000	79,497980
1758,000000	79,498028
1757,000000	79,499015
1756,000000	79,487318
1755,000000	79,439159
1754,000000	79,461412
1753,000000	79,451360
1752,000000	79,474680
1751,000000	79,433467
1750,000000	79,439061
1749,000000	79,391179
1748,000000	79,380538
1747,000000	79,372363
1746,000000	79,399998
1745,000000	79,400487
1744,000000	79,384007
1743,000000	79,350555
1742,000000	79,355609
1741,000000	79,316124
1740,000000	79,319905
1739,000000	79,314311
1738,000000	79,326529
1737,000000	79,318939
1736,000000	79,332707
1735,000000	79,311301
1734,000000	79,337218
1733,000000	79,324747
1732,000000	79,290083
1731,000000	79,272866
1730,000000	79,267620
1729,000000	79,248760
1728,000000	79,239303
1727,000000	79,219950
1726,000000	79,244945
1725,000000	79,225713
1724,000000	79,253761
1723,000000	79,250585
1722,000000	79,262972
1721,000000	79,225911
1720,000000	79,239959
1719,000000	79,230498
1718,000000	79,258820
1717,000000	79,267392
1716,000000	79,281548
1715,000000	79,220578
1714,000000	79,233193
1713,000000	79,229489
1712,000000	79,235009
1711,000000	79,205545
1710,000000	79,225215
1709,000000	79,212537
1708,000000	79,224650
1707,000000	79,225596
1706,000000	79,235553
1705,000000	79,202689
1704,000000	79,204533
1703,000000	79,173962
1702,000000	79,193246
1701,000000	79,159489
1700,000000	79,181435
1699,000000	79,147731
1698,000000	79,180394
1697,000000	79,138074
1696,000000	79,198183
1695,000000	79,149455
1694,000000	79,177653
1693,000000	79,136463
1692,000000	79,153377
1691,000000	79,130386
1690,000000	79,159574
1689,000000	79,137271
1688,000000	79,150417
1687,000000	79,138442
1686,000000	79,172134
1685,000000	79,171869
1684,000000	79,198858
1683,000000	79,161200
1682,000000	79,179848
1681,000000	79,184277
1680,000000	79,231303
1679,000000	79,243970
1678,000000	79,263178
1677,000000	79,255909
1676,000000	79,297537
1675,000000	79,297747
1674,000000	79,328503
1673,000000	79,335810
1672,000000	79,364033
1671,000000	79,374263
1670,000000	79,423076
1669,000000	79,411439
1668,000000	79,446480
1667,000000	79,471308
1666,000000	79,514357
1665,000000	79,535753
1664,000000	79,593347
1663,000000	79,609486
1662,000000	79,645597
1661,000000	79,652329
1660,000000	79,688777
1659,000000	79,683717
1658,000000	79,732885
1657,000000	79,754785
1656,000000	79,757323
1655,000000	79,754087
1654,000000	79,811364
1653,000000	79,816161
1652,000000	79,847313
1651,000000	79,847712
1650,000000	79,869672
1649,000000	79,870427
1648,000000	79,894587
1647,000000	79,893948
1646,000000	79,915198
1645,000000	79,916458
1644,000000	79,968179
1643,000000	79,983614
1642,000000	80,006764
1641,000000	80,025382
1640,000000	80,039971
1639,000000	80,053661
1638,000000	80,075045
1637,000000	80,074322
1636,000000	80,096132
1635,000000	80,123203
1634,000000	80,147999
1633,000000	80,146926
1632,000000	80,184439
1631,000000	80,189254
1630,000000	80,202598
1629,000000	80,162772
1628,000000	80,057873
1627,000000	79,920463
1626,000000	79,764979
1625,000000	79,619497
1624,000000	79,652173
1623,000000	79,642018
1622,000000	79,666831
1621,000000	79,678665
1620,000000	79,684940
1619,000000	79,679557
1618,000000	79,696845
1617,000000	79,720434
1616,000000	79,759872
1615,000000	79,702212
1614,000000	79,618850
1613,000000	79,732734
1612,000000	79,908059
1611,000000	80,015257
1610,000000	80,018433
1609,000000	79,994196
1608,000000	79,943637
1607,000000	79,816260
1606,000000	79,822672
1605,000000	79,833430
1604,000000	79,845717
1603,000000	79,901611
1602,000000	80,028627
1601,000000	79,957836
1600,000000	79,834214
1599,000000	79,832480
1598,000000	79,822892
1597,000000	79,871032
1596,000000	80,019242
1595,000000	79,924521
1594,000000	79,796883
1593,000000	79,804448
1592,000000	79,812758
1591,000000	79,882689
1590,000000	79,998743
1589,000000	79,898686
1588,000000	79,762630
1587,000000	79,760013
1586,000000	79,841182
1585,000000	79,949263
1584,000000	79,864529
1583,000000	79,731522
1582,000000	79,809617
1581,000000	79,904990
1580,000000	79,798698
1579,000000	79,653281
1578,000000	79,734454
1577,000000	79,826552
1576,000000	79,724482
1575,000000	79,591581
1574,000000	79,573499
1573,000000	79,627751
1572,000000	79,736951
1571,000000	79,640631
1570,000000	79,598310
1569,000000	79,695877
1568,000000	79,669141
1567,000000	79,573517
1566,000000	79,439954
1565,000000	79,485907
1564,000000	79,599059
1563,000000	79,585769
1562,000000	79,488210
1561,000000	79,370275
1560,000000	79,413664
1559,000000	79,483646
1558,000000	79,454104
1557,000000	79,427626
1556,000000	79,330251
1555,000000	79,209667
1554,000000	79,188073
1553,000000	79,239421
1552,000000	79,307998
1551,000000	79,283205
1550,000000	79,272414
1549,000000	79,245338
1548,000000	79,115494
1547,000000	79,008253
1546,000000	78,972987
1545,000000	78,928150
1544,000000	78,993174
1543,000000	79,048397
1542,000000	79,014293
1541,000000	78,993934
1540,000000	78,969370
1539,000000	78,941790
1538,000000	78,883950
1537,000000	78,838012
1536,000000	78,807027
1535,000000	78,774028
1534,000000	78,649394
1533,000000	78,535717
1532,000000	78,486735
1531,000000	78,461944
1530,000000	78,526856
1529,000000	78,566266
1528,000000	78,528231
1527,000000	78,478602
1526,000000	78,430127
1525,000000	78,420679
1524,000000	78,383917
1523,000000	78,348923
1522,000000	78,214544
1521,000000	78,114339
1520,000000	78,177786
1519,000000	78,220588
1518,000000	78,182863
1517,000000	78,152666
1516,000000	78,114492
1515,000000	77,996899
1514,000000	77,893474
1513,000000	77,951698
1512,000000	77,983693
1511,000000	77,958228
1510,000000	77,915216
1509,000000	77,792473
1508,000000	77,806600
1507,000000	77,831452
1506,000000	77,800149
1505,000000	77,781875
1504,000000	77,639333
1503,000000	77,552165
1502,000000	77,617476
1501,000000	77,648441
1500,000000	77,628960
1499,000000	77,613079
1498,000000	77,473956
1497,000000	77,385444
1496,000000	77,467231
1495,000000	77,510546
1494,000000	77,476293
1493,000000	77,452860
1492,000000	77,433659
1491,000000	77,402209
1490,000000	77,383531
1489,000000	77,270352
1488,000000	77,193244
1487,000000	77,286005
1486,000000	77,328368
1485,000000	77,296284
1484,000000	77,269863
1483,000000	77,261432
1482,000000	77,226970
1481,000000	77,218131
1480,000000	77,179858
1479,000000	77,164596
1478,000000	77,160196
1477,000000	77,159107
1476,000000	77,115430
1475,000000	77,096763
1474,000000	77,093207
1473,000000	77,076057
1472,000000	77,051343
1471,000000	77,047377
1470,000000	77,010354
1469,000000	77,017623
1468,000000	77,009965
1467,000000	76,902809
1466,000000	76,949361
1465,000000	76,995135
1464,000000	76,950693
1463,000000	76,971122
1462,000000	76,947229
1461,000000	76,946794
1460,000000	76,826619
1459,000000	76,916913
1458,000000	76,923879
1457,000000	76,949059
1456,000000	76,941667
1455,000000	76,937554
1454,000000	76,910914
1453,000000	76,931678
1452,000000	76,936303
1451,000000	76,832754
1450,000000	76,815085
1449,000000	76,925506
1448,000000	76,939066
1447,000000	76,940617
1446,000000	76,926258
1445,000000	76,960470
1444,000000	76,956655
1443,000000	76,990978
1442,000000	76,960218
1441,000000	76,971218
1440,000000	76,972174
1439,000000	76,985820
1438,000000	76,999248
1437,000000	77,016024
1436,000000	77,000654
1435,000000	77,027362
1434,000000	77,017725
1433,000000	77,037865
1432,000000	77,027329
1431,000000	77,044913
1430,000000	77,045136
1429,000000	77,091318
1428,000000	77,089467
1427,000000	77,113540
1426,000000	77,105250
1425,000000	77,130849
1424,000000	77,112184
1423,000000	77,173566
1422,000000	77,154366
1421,000000	77,208113
1420,000000	77,096290
1419,000000	77,199106
1418,000000	77,314414
1417,000000	77,227707
1416,000000	77,207966
1415,000000	77,241294
1414,000000	77,239254
1413,000000	77,280684
1412,000000	77,130902
1411,000000	77,137003
1410,000000	77,240891
1409,000000	77,311922
1408,000000	77,283186
1407,000000	77,187980
1406,000000	77,301960
1405,000000	77,329822
1404,000000	77,308467
1403,000000	77,222607
1402,000000	77,217608
1401,000000	77,371237
1400,000000	77,363237
1399,000000	77,409191
1398,000000	77,397054
1397,000000	77,450046
1396,000000	77,434310
1395,000000	77,482808
1394,000000	77,453253
1393,000000	77,494828
1392,000000	77,457239
1391,000000	77,467477
1390,000000	77,456557
1389,000000	77,455681
1388,000000	77,444775
1387,000000	77,482940
1386,000000	77,463458
1385,000000	77,471166
1384,000000	77,457616
1383,000000	77,496140
1382,000000	77,481245
1381,000000	77,485024
1380,000000	77,467709
1379,000000	77,511365
1378,000000	77,366104
1377,000000	77,359519
1376,000000	77,498953
1375,000000	77,501703
1374,000000	77,476615
1373,000000	77,474586
1372,000000	77,411043
1371,000000	77,307753
1370,000000	77,253400
1369,000000	77,282820
1368,000000	77,207578
1367,000000	77,219338
1366,000000	77,178295
1365,000000	77,170517
1364,000000	77,141200
1363,000000	77,191592
1362,000000	77,168940
1361,000000	77,143215
1360,000000	77,110032
1359,000000	77,259137
1358,000000	77,241236
1357,000000	77,071208
1356,000000	77,023495
1355,000000	77,031830
1354,000000	77,007165
1353,000000	76,998289
1352,000000	76,915792
1351,000000	76,821931
1350,000000	76,909244
1349,000000	76,879314
1348,000000	76,852178
1347,000000	76,834882
1346,000000	76,809825
1345,000000	76,879730
1344,000000	76,748614
1343,000000	76,736128
1342,000000	76,675591
1341,000000	76,665410
1340,000000	76,670294
1339,000000	76,572818
1338,000000	76,453288
1337,000000	76,470287
1336,000000	76,503359
1335,000000	76,485864
1334,000000	76,398251
1333,000000	76,391636
1332,000000	76,338539
1331,000000	76,314035
1330,000000	76,254828
1329,000000	76,313703
1328,000000	76,258662
1327,000000	76,226021
1326,000000	76,179058
1325,000000	76,139630
1324,000000	76,065807
1323,000000	76,032159
1322,000000	75,938126
1321,000000	75,931101
1320,000000	75,879987
1319,000000	75,819154
1318,000000	75,764731
1317,000000	75,745121
1316,000000	75,664999
1315,000000	75,609135
1314,000000	75,526273
1313,000000	75,537675
1312,000000	75,486866
1311,000000	75,463509
1310,000000	75,407594
1309,000000	75,385471
1308,000000	75,342069
1307,000000	75,307436
1306,000000	75,259986
1305,000000	75,225673
1304,000000	75,178436
1303,000000	75,143449
1302,000000	75,098393
1301,000000	75,081095
1300,000000	75,032490
1299,000000	75,003863
1298,000000	74,997360
1297,000000	74,996135
1296,000000	74,911483
1295,000000	74,894732
1294,000000	74,866819
1293,000000	74,848531
1292,000000	74,817732
1291,000000	74,820733
1290,000000	74,778225
1289,000000	74,755731
1288,000000	74,715452
1287,000000	74,707626
1286,000000	74,702221
1285,000000	74,675904
1284,000000	74,656720
1283,000000	74,657508
1282,000000	74,637943
1281,000000	74,640130
1280,000000	74,624214
1279,000000	74,616455
1278,000000	74,622543
1277,000000	74,621480
1276,000000	74,603819
1275,000000	74,608142
1274,000000	74,595036
1273,000000	74,576574
1272,000000	74,562205
1271,000000	74,564342
1270,000000	74,555717
1269,000000	74,556860
1268,000000	74,545256
1267,000000	74,547819
1266,000000	74,555174
1265,000000	74,578834
1264,000000	74,588974
1263,000000	74,603712
1262,000000	74,614355
1261,000000	74,616797
1260,000000	74,621351
1259,000000	74,624589
1258,000000	74,627347
1257,000000	74,654019
1256,000000	74,679044
1255,000000	74,695254
1254,000000	74,707262
1253,000000	74,723243
1252,000000	74,739696
1251,000000	74,757472
1250,000000	74,775419
1249,000000	74,792109
1248,000000	74,811222
1247,000000	74,860735
1246,000000	74,898280
1245,000000	74,925825
1244,000000	74,948284
1243,000000	74,968412
1242,000000	74,981062
1241,000000	74,992575
1240,000000	75,023723
1239,000000	75,055776
1238,000000	75,085699
1237,000000	75,109924
1236,000000	75,119970
1235,000000	75,141095
1234,000000	75,172716
1233,000000	75,208443
1232,000000	75,239778
1231,000000	75,251969
1230,000000	75,289497
1229,000000	75,313858
1228,000000	75,322151
1227,000000	75,350441
1226,000000	75,380089
1225,000000	75,409187
1224,000000	75,430614
1223,000000	75,441869
1222,000000	75,469089
1221,000000	75,484318
1220,000000	75,501701
1219,000000	75,531730
1218,000000	75,544578
1217,000000	75,555319
1216,000000	75,580647
1215,000000	75,576841
1214,000000	75,595088
1213,000000	75,601964
1212,000000	75,605081
1211,000000	75,608592
1210,000000	75,622532
1209,000000	75,634245
1208,000000	75,647861
1207,000000	75,642651
1206,000000	75,638503
1205,000000	75,635328
1204,000000	75,630743
1203,000000	75,609626
1202,000000	75,613189
1201,000000	75,616348
1200,000000	75,625757
1199,000000	75,623657
1198,000000	75,619543
1197,000000	75,595734
1196,000000	75,593783
1195,000000	75,575321
1194,000000	75,553220
1193,000000	75,531799
1192,000000	75,539589
1191,000000	75,507936
1190,000000	75,459540
1189,000000	75,436714
1188,000000	75,406348
1187,000000	75,349859
1186,000000	75,331015
1185,000000	75,324790
1184,000000	75,318492
1183,000000	75,266088
1182,000000	75,222585
1181,000000	75,184751
1180,000000	75,166470
1179,000000	75,126260
1178,000000	75,092995
1177,000000	75,023001
1176,000000	75,002510
1175,000000	74,965806
1174,000000	74,923487
1173,000000	74,856178
1172,000000	74,818814
1171,000000	74,772237
1170,000000	74,738514
1169,000000	74,685230
1168,000000	74,660521
1167,000000	74,624480
1166,000000	74,587262
1165,000000	74,525011
1164,000000	74,516892
1163,000000	74,486555
1162,000000	74,455502
1161,000000	74,362684
1160,000000	74,310997
1159,000000	74,259862
1158,000000	74,239580
1157,000000	74,179012
1156,000000	74,127115
1155,000000	74,069092
1154,000000	74,097532
1153,000000	74,086949
1152,000000	74,062821
1151,000000	73,962838
1150,000000	73,922320
1149,000000	73,873709
1148,000000	73,844140
1147,000000	73,783710
1146,000000	73,774938
1145,000000	73,732181
1144,000000	73,722210
1143,000000	73,720857
1142,000000	73,744212
1141,000000	73,732104
1140,000000	73,636529
1139,000000	73,576266
1138,000000	73,579989
1137,000000	73,566658
1136,000000	73,578320
1135,000000	73,563451
1134,000000	73,547635
1133,000000	73,528634
1132,000000	73,533429
1131,000000	73,595490
1130,000000	73,556041
1129,000000	73,516662
1128,000000	73,532067
1127,000000	73,513346
1126,000000	73,519160
1125,000000	73,524801
1124,000000	73,531881
1123,000000	73,510510
1122,000000	73,539814
1121,000000	73,525924
1120,000000	73,598096
1119,000000	73,568497
1118,000000	73,594335
1117,000000	73,590498
1116,000000	73,611991
1115,000000	73,618537
1114,000000	73,668643
1113,000000	73,683885
1112,000000	73,740062
1111,000000	73,723629
1110,000000	73,774876
1109,000000	73,783794
1108,000000	73,821756
1107,000000	73,843701
1106,000000	73,917110
1105,000000	73,928019
1104,000000	73,969130
1103,000000	73,957755
1102,000000	74,038442
1101,000000	74,056601
1100,000000	74,103955
1099,000000	74,113566
1098,000000	74,229703
1097,000000	74,196836
1096,000000	74,255105
1095,000000	74,270154
1094,000000	74,319318
1093,000000	74,322466
1092,000000	74,364829
1091,000000	74,392463
1090,000000	74,478726
1089,000000	74,517236
1088,000000	74,473582
1087,000000	74,504001
1086,000000	74,557658
1085,000000	74,564406
1084,000000	74,599709
1083,000000	74,696367
1082,000000	74,733005
1081,000000	74,631702
1080,000000	74,681035
1079,000000	74,680235
1078,000000	74,726814
1077,000000	74,714634
1076,000000	74,736456
1075,000000	74,722804
1074,000000	74,755689
1073,000000	74,723292
1072,000000	74,755791
1071,000000	74,719514
1070,000000	74,724441
1069,000000	74,712325
1068,000000	74,749228
1067,000000	74,690842
1066,000000	74,707369
1065,000000	74,655370
1064,000000	74,676695
1063,000000	74,631717
1062,000000	74,647576
1061,000000	74,680523
1060,000000	74,589208
1059,000000	74,545480
1058,000000	74,538142
1057,000000	74,485466
1056,000000	74,461906
1055,000000	74,408162
1054,000000	74,401862
1053,000000	74,346896
1052,000000	74,349736
1051,000000	74,282851
1050,000000	74,236422
1049,000000	74,202464
1048,000000	74,150952
1047,000000	74,127268
1046,000000	74,108077
1045,000000	74,048398
1044,000000	74,028767
1043,000000	73,954141
1042,000000	73,945405
1041,000000	73,861416
1040,000000	73,817004
1039,000000	73,766920
1038,000000	73,759121
1037,000000	73,704957
1036,000000	73,678210
1035,000000	73,616019
1034,000000	73,595915
1033,000000	73,522446
1032,000000	73,436104
1031,000000	73,462132
1030,000000	73,444409
1029,000000	73,388220
1028,000000	73,307389
1027,000000	73,331445
1026,000000	73,331404
1025,000000	73,265735
1024,000000	73,252447
1023,000000	73,227490
1022,000000	73,211100
1021,000000	73,098119
1020,000000	73,191859
1019,000000	73,166765
1018,000000	73,165779
1017,000000	73,157248
1016,000000	73,162143
1015,000000	73,099362
1014,000000	73,034036
1013,000000	73,115089
1012,000000	73,115745
1011,000000	73,049363
1010,000000	73,158702
1009,000000	73,118216
1008,000000	73,068112
1007,000000	73,169103
1006,000000	73,165511
1005,000000	73,124675
1004,000000	73,239474
1003,000000	73,223014
1002,000000	73,204933
1001,000000	73,269905
1000,000000	73,255031
999,000000	73,366339
998,000000	73,352721
997,000000	73,331273
996,000000	73,467113
995,000000	73,490628
994,000000	73,492450
993,000000	73,426420
992,000000	73,525177
991,000000	73,643910
990,000000	73,638262
989,000000	73,561749
988,000000	73,656604
987,000000	73,722800
986,000000	73,717628
985,000000	73,793469
984,000000	73,710929
983,000000	73,795457
982,000000	73,956280
981,000000	73,935956
980,000000	73,872095
979,000000	73,899858
978,000000	73,988523
977,000000	74,124237
976,000000	74,107719
975,000000	74,019059
974,000000	74,048594
973,000000	74,098898
972,000000	74,136265
971,000000	74,158528
970,000000	74,250544
969,000000	74,359703
968,000000	74,426265
967,000000	74,464095
966,000000	74,560642
965,000000	74,617992
964,000000	74,633857
963,000000	74,628404
962,000000	74,622208
961,000000	74,615862
960,000000	74,602729
959,000000	74,574983
958,000000	74,572757
957,000000	74,549100
956,000000	74,515620
955,000000	74,477171
954,000000	74,447564
953,000000	74,415399
952,000000	74,398706
951,000000	74,377958
950,000000	74,371767
949,000000	74,336588
948,000000	74,296798
947,000000	74,261410
946,000000	74,243830
945,000000	74,211408
944,000000	74,167771
943,000000	74,126033
942,000000	74,098383
941,000000	74,077203
940,000000	74,055193
939,000000	74,010993
938,000000	73,972320
937,000000	73,936822
936,000000	73,917811
935,000000	73,890418
934,000000	73,861187
933,000000	73,848071
932,000000	73,821532
931,000000	73,782020
930,000000	73,761285
929,000000	73,751190
928,000000	73,733231
927,000000	73,746061
926,000000	73,757380
925,000000	73,735689
924,000000	73,716234
923,000000	73,735995
922,000000	73,730898
921,000000	73,738036
920,000000	73,760300
919,000000	73,762424
918,000000	73,761704
917,000000	73,792007
916,000000	73,806574
915,000000	73,830054
914,000000	73,837864
913,000000	73,860585
912,000000	73,885255
911,000000	73,931745
910,000000	73,943644
909,000000	73,970138
908,000000	74,013482
907,000000	74,062181
906,000000	74,079480
905,000000	74,118721
904,000000	74,160952
903,000000	74,192710
902,000000	74,247696
901,000000	74,296236
900,000000	74,305162
899,000000	74,377288
898,000000	74,422543
897,000000	74,453689
896,000000	74,483380
895,000000	74,539534
894,000000	74,531149
893,000000	74,592762
892,000000	74,629337
891,000000	74,653789
890,000000	74,630784
889,000000	74,705761
888,000000	74,703564
887,000000	74,701110
886,000000	74,713317
885,000000	74,771298
884,000000	74,748939
883,000000	74,794504
882,000000	74,811956
881,000000	74,812567
880,000000	74,763689
879,000000	74,774997
878,000000	74,718416
877,000000	74,806579
876,000000	74,787066
875,000000	74,768606
874,000000	74,719031
873,000000	74,783494
872,000000	74,709782
871,000000	74,744588
870,000000	74,642871
869,000000	74,655740
868,000000	74,585231
867,000000	74,642141
866,000000	74,545667
865,000000	74,615369
864,000000	74,582608
863,000000	74,546271
862,000000	74,449078
861,000000	74,298037
860,000000	74,314949
859,000000	74,441116
858,000000	74,383290
857,000000	74,085822
856,000000	73,955104
855,000000	74,283438
854,000000	74,354306
853,000000	74,143435
852,000000	73,905384
851,000000	74,219542
850,000000	73,982933
849,000000	74,138812
848,000000	74,043070
847,000000	74,168510
846,000000	74,119533
845,000000	74,275941
844,000000	74,300375
843,000000	74,208403
842,000000	74,272888
841,000000	74,075249
840,000000	74,002102
839,000000	74,212871
838,000000	74,191957
837,000000	74,319635
836,000000	74,331889
835,000000	74,321518
834,000000	74,434398
833,000000	74,503300
832,000000	74,621170
831,000000	74,529133
830,000000	74,609569
829,000000	74,574609
828,000000	74,790666
827,000000	74,917173
826,000000	74,791327
825,000000	74,871382
824,000000	75,007037
823,000000	74,930732
822,000000	75,053336
821,000000	74,949843
820,000000	75,200853
819,000000	74,995746
818,000000	75,131137
817,000000	75,236637
816,000000	75,418372
815,000000	75,317491
814,000000	75,342689
813,000000	75,509214
812,000000	75,413329
811,000000	75,297445
810,000000	75,508000
809,000000	75,658190
808,000000	75,654539
807,000000	75,424190
806,000000	75,364573
805,000000	75,361380
804,000000	75,426623
803,000000	75,414739
802,000000	75,337948
801,000000	75,393198
800,000000	75,217759
799,000000	75,352521
798,000000	75,281529
797,000000	75,178401
796,000000	75,250522
795,000000	75,172576
794,000000	75,166565
793,000000	75,157497
792,000000	75,058566
791,000000	75,083075
790,000000	74,768676
789,000000	74,933390
788,000000	74,962219
787,000000	74,936226
786,000000	74,985347
785,000000	74,979102
784,000000	74,955663
783,000000	74,988942
782,000000	75,096785
781,000000	75,033622
780,000000	75,049606
779,000000	75,053045
778,000000	75,122715
777,000000	75,196015
776,000000	75,241538
775,000000	75,109509
774,000000	75,307235
773,000000	75,291905
772,000000	75,319277
771,000000	75,309788
770,000000	75,318192
769,000000	75,560381
768,000000	75,579450
767,000000	75,536087
766,000000	75,566251
765,000000	75,839939
764,000000	75,771794
763,000000	75,957152
762,000000	75,972392
761,000000	76,072919
760,000000	75,966184
759,000000	76,065522
758,000000	76,130794
757,000000	76,117450
756,000000	76,190023
755,000000	76,147167
754,000000	76,345189
753,000000	76,335625
752,000000	76,203736
751,000000	76,196687
750,000000	76,364430
749,000000	76,274128
748,000000	76,322087
747,000000	76,294102
746,000000	76,187861
745,000000	76,076131
744,000000	75,999654
743,000000	76,209056
742,000000	76,060407
741,000000	76,018597
740,000000	76,015098
739,000000	75,907256
738,000000	75,925264
737,000000	75,927381
736,000000	75,953123
735,000000	75,822510
734,000000	75,744041
733,000000	75,826249
732,000000	75,722682
731,000000	75,711461
730,000000	75,763785
729,000000	75,825470
728,000000	75,765996
727,000000	75,726636
726,000000	75,733051
725,000000	75,800483
724,000000	75,766643
723,000000	75,830111
722,000000	75,907753
721,000000	75,930702
720,000000	75,876695
719,000000	76,055576
718,000000	76,141944
717,000000	76,232246
716,000000	76,234483
715,000000	76,321764
714,000000	76,386742
713,000000	76,441034
712,000000	76,486160
711,000000	76,493856
710,000000	76,568992
709,000000	76,712658
708,000000	76,732832
707,000000	76,732801
706,000000	76,802787
705,000000	76,812925
704,000000	76,799740
703,000000	76,915063
702,000000	76,895616
701,000000	76,882650
700,000000	76,876190
699,000000	76,812641
698,000000	76,884214
697,000000	76,881720
696,000000	76,785020
695,000000	76,775995
694,000000	76,680777
693,000000	76,693330
692,000000	76,579691
691,000000	76,591812
690,000000	76,527973
689,000000	76,435995
688,000000	76,368939
687,000000	76,392363
686,000000	76,384513
685,000000	76,306563
684,000000	76,250654
683,000000	76,254847
682,000000	76,282151
681,000000	76,235661
680,000000	76,219950
679,000000	76,279764
678,000000	76,276684
677,000000	76,315455
676,000000	76,310878
675,000000	76,337217
674,000000	76,434372
673,000000	76,477454
672,000000	76,513069
671,000000	76,507730
670,000000	76,607506
669,000000	76,744126
668,000000	76,755872
667,000000	76,773993
666,000000	76,811872
665,000000	76,903631
664,000000	76,949972
663,000000	77,030998
662,000000	77,053568
661,000000	77,022620
660,000000	77,103332
659,000000	77,140326
658,000000	77,102523
657,000000	77,078716
656,000000	77,145322
655,000000	77,088334
654,000000	77,007577
653,000000	77,008028
652,000000	76,980818
651,000000	76,928025
650,000000	76,904610
649,000000	76,851470
648,000000	76,808995
647,000000	76,772756
646,000000	76,755769
645,000000	76,758917
644,000000	76,742596
643,000000	76,700101
642,000000	76,653203
641,000000	76,621187
640,000000	76,640405
639,000000	76,652045
638,000000	76,654826
637,000000	76,651791
636,000000	76,692807
635,000000	76,741807
634,000000	76,770068
633,000000	76,838106
632,000000	76,914552
631,000000	76,914150
630,000000	76,905217
629,000000	76,999701
628,000000	77,079305
627,000000	77,087743
626,000000	77,165401
625,000000	77,219675
624,000000	77,239645
623,000000	77,254390
622,000000	77,218696
621,000000	77,205075
620,000000	77,207120
619,000000	77,237942
618,000000	77,216410
617,000000	77,175020
616,000000	77,149320
615,000000	77,067745
614,000000	77,033532
613,000000	76,981893
612,000000	76,935310
611,000000	76,918678
610,000000	76,915950
609,000000	76,878757
608,000000	76,866594
607,000000	76,837628
606,000000	76,827196
605,000000	76,867313
604,000000	76,879086
603,000000	76,875520
602,000000	76,905073
601,000000	76,950080
600,000000	77,017915
599,000000	77,010296
598,000000	77,023888
597,000000	77,066756
596,000000	77,120595
595,000000	77,184026
594,000000	77,239452
593,000000	77,222172
592,000000	77,275957
591,000000	77,325055
590,000000	77,326835
589,000000	77,286801
588,000000	77,275133
587,000000	77,230618
586,000000	77,180079
585,000000	77,154662
584,000000	77,059271
583,000000	77,060592
582,000000	77,015518
581,000000	76,989778
580,000000	77,001076
579,000000	76,958309
578,000000	76,916416
577,000000	76,905446
576,000000	76,875251
575,000000	76,917542
574,000000	76,911329
573,000000	76,958991
572,000000	76,952756
571,000000	76,952051
570,000000	77,021634
569,000000	77,050726
568,000000	77,088641
567,000000	77,125991
566,000000	77,177237
565,000000	77,190894
564,000000	77,200513
563,000000	77,256460
562,000000	77,299584
561,000000	77,385334
560,000000	77,410640
559,000000	77,407140
558,000000	77,326637
557,000000	77,312627
556,000000	77,311629
555,000000	77,266263
554,000000	77,220672
553,000000	77,175462
552,000000	77,135076
551,000000	77,080436
550,000000	77,069201
549,000000	76,990728
548,000000	76,985923
547,000000	76,976787
546,000000	77,027682
545,000000	77,052504
544,000000	77,071612
543,000000	77,074828
542,000000	77,080166
541,000000	77,156228
540,000000	77,184520
539,000000	77,211456
538,000000	77,212740
537,000000	77,224357
536,000000	77,240828
535,000000	77,291750
534,000000	77,257258
533,000000	77,191294
532,000000	77,133079
531,000000	77,060255
530,000000	77,039256
529,000000	77,013885
528,000000	76,968316
527,000000	76,894558
526,000000	76,833023
525,000000	76,842545
524,000000	76,811777
523,000000	76,823982
522,000000	76,780271
521,000000	76,796262
520,000000	76,771944
519,000000	76,801239
518,000000	76,760805
517,000000	76,782503
516,000000	76,822694
515,000000	76,762973
514,000000	76,707971
513,000000	76,673798
512,000000	76,628331
511,000000	76,589901
510,000000	76,523315
509,000000	76,395050
508,000000	76,379962
507,000000	76,323155
506,000000	76,240111
505,000000	76,171108
504,000000	76,138280
503,000000	76,162289
502,000000	76,137976
501,000000	76,215427
500,000000	76,169277
499,000000	76,275746
498,000000	76,209052
497,000000	76,256933
496,000000	76,345148
495,000000	76,241839
494,000000	76,279921
493,000000	76,286517
492,000000	76,259359
491,000000	76,203264
490,000000	76,233902
489,000000	76,196722
488,000000	76,054828
487,000000	76,108680
486,000000	76,045614
485,000000	75,994433
484,000000	76,033165
483,000000	76,164739
482,000000	76,168871
481,000000	76,155984
480,000000	76,057520
479,000000	76,048668
478,000000	76,028291
477,000000	75,916260
476,000000	75,850180
475,000000	75,840218
474,000000	75,693143
473,000000	75,639888
472,000000	75,530037
471,000000	75,410057
470,000000	75,291614
469,000000	75,185090
468,000000	75,128113
467,000000	75,018202
466,000000	75,000102
465,000000	75,002797
464,000000	74,981217
463,000000	74,912238
462,000000	74,892564
461,000000	74,816616
460,000000	74,724563
459,000000	74,631086
458,000000	74,530217
457,000000	74,509966
456,000000	74,522292
455,000000	74,393816
454,000000	74,257022
453,000000	74,167919
452,000000	74,073962
451,000000	74,017296
450,000000	73,961261
449,000000	73,973299
448,000000	73,843885
447,000000	73,708407
446,000000	73,726131
445,000000	73,678632
444,000000	73,629454
443,000000	73,441927
442,000000	73,350081
441,000000	73,136754
440,000000	72,986120
439,000000	72,839052
438,000000	72,672273
437,000000	72,594548
436,000000	72,516132
435,000000	72,387346
434,000000	72,206408
433,000000	72,087250
432,000000	71,859653
431,000000	71,486769
430,000000	71,184839
429,000000	70,880198
428,000000	70,401258
427,000000	69,943167
426,000000	69,409648
425,000000	68,710520
424,000000	67,920125
423,000000	66,917939
422,000000	65,835806
421,000000	64,589723
420,000000	63,210310
419,000000	61,810210
418,000000	60,469913
417,000000	59,079331
416,000000	57,782875
415,000000	56,530173
414,000000	55,450410
413,000000	54,563254
412,000000	53,802726
411,000000	53,155218
410,000000	52,776233
409,000000	52,432784
408,000000	52,204924
407,000000	52,143875
406,000000	52,143790
405,000000	52,182457
404,000000	52,263314
403,000000	52,390071
402,000000	52,599415
401,000000	52,767253
400,000000	52,977894
399,000000	53,212260
398,000000	53,402295
397,000000	53,587444
396,000000	53,747384
395,000000	53,935306
394,000000	54,121449
393,000000	54,274424
392,000000	54,424900
391,000000	54,580694
390,000000	54,670047
389,000000	54,737037
388,000000	54,863974
387,000000	55,094853
386,000000	55,181257
385,000000	55,300959
384,000000	55,423600
383,000000	55,588481
382,000000	55,698882
381,000000	55,925892
380,000000	56,196793
379,000000	56,398696
378,000000	56,677826
377,000000	57,127411
376,000000	57,287292
375,000000	57,710485
374,000000	58,467600
373,000000	59,431275
372,000000	60,318814
371,000000	60,793721
370,000000	61,149947
369,000000	62,186187
368,000000	63,074016
367,000000	63,821924
366,000000	64,740943
365,000000	65,315169
364,000000	66,027086
363,000000	66,588566
362,000000	66,981809
361,000000	67,312023
360,000000	68,012804
359,000000	68,481072
358,000000	69,151400
357,000000	69,710722
356,000000	69,953902
355,000000	70,108418
354,000000	70,598714
353,000000	71,261588
352,000000	71,753864
351,000000	71,880670
350,000000	72,230049
349,000000	72,454482
348,000000	72,736454
347,000000	73,353156
346,000000	73,491072
345,000000	73,640643
344,000000	73,905019
343,000000	73,727289
342,000000	73,618223
341,000000	73,282592
340,000000	73,085300
339,000000	73,869815
338,000000	73,692499
337,000000	73,020489
336,000000	72,607148
335,000000	72,312095
334,000000	72,638055
333,000000	72,282143
332,000000	71,550133
331,000000	71,453875
330,000000	71,094569
329,000000	70,512533
328,000000	70,610812
327,000000	70,968055
326,000000	70,663639
325,000000	70,113728
324,000000	69,707194
323,000000	69,404338
322,000000	69,380452
321,000000	69,321294
320,000000	69,114906
319,000000	69,165741
318,000000	69,253765
317,000000	69,352871
316,000000	69,207847
315,000000	69,125405
314,000000	69,207761
313,000000	69,068822
312,000000	68,997508
311,000000	68,940004
310,000000	69,066215
309,000000	69,440443
308,000000	69,816926
307,000000	70,205094
306,000000	70,659255
305,000000	71,495845
304,000000	72,228965
303,000000	72,488759
302,000000	72,801164
301,000000	73,135779
300,000000	73,491691
299,000000	73,766540
298,000000	74,254859
297,000000	74,930241
296,000000	75,734576
295,000000	76,451776
294,000000	77,055595
293,000000	77,850181
292,000000	78,768255
291,000000	79,757235
290,000000	80,802144
289,000000	81,807474
288,000000	82,813998
287,000000	83,849906
286,000000	84,963365
285,000000	86,191378
284,000000	87,277664
283,000000	88,259237
282,000000	89,214155
281,000000	90,004951
280,000000	90,931832
279,000000	91,751350
278,000000	92,443981
277,000000	93,217305
276,000000	93,738892
275,000000	94,132856
274,000000	94,908826
273,000000	95,426396
272,000000	95,666715
271,000000	96,051912
270,000000	96,254489
269,000000	96,467991
268,000000	96,665545
267,000000	96,926979
266,000000	97,174552
265,000000	97,503017
264,000000	98,083039
263,000000	98,603132
262,000000	99,136724
261,000000	99,762007
260,000000	100,588718
259,000000	101,256511
258,000000	101,916481
257,000000	102,935438
256,000000	104,318663
255,000000	105,658894
254,000000	106,692957
253,000000	108,017125
252,000000	109,627064
251,000000	111,299662
250,000000	113,005511
249,000000	114,603433
248,000000	115,836766
247,000000	117,058849
246,000000	118,519592
245,000000	119,972340
244,000000	121,646574
243,000000	123,625952
242,000000	125,983218
241,000000	127,858189
240,000000	129,861433
239,000000	132,019279
238,000000	134,228563
237,000000	137,035659
236,000000	140,784426
235,000000	144,447080
234,000000	148,118711
233,000000	151,475055
232,000000	153,225528
231,000000	157,712498
230,000000	160,794993
229,000000	163,975766
228,000000	167,147298
227,000000	170,239299
226,000000	173,593221
225,000000	176,903042
224,000000	179,923514
223,000000	182,561745
222,000000	185,648611
221,000000	188,246919
220,000000	190,980222
219,000000	193,636869
218,000000	196,489045
217,000000	199,098437
216,000000	201,665061
215,000000	204,260812
214,000000	206,475629
213,000000	209,637008
212,000000	213,353651
211,000000	217,840255
210,000000	222,947647
209,000000	228,484484
208,000000	234,765299
207,000000	241,042784
206,000000	249,450071
205,000000	257,726151
204,000000	266,554875
203,000000	277,619772
202,000000	289,236457
201,000000	301,817303
200,000000	313,857653
