PE UV       SUBTECH     SPECTRUM    ASCII       PEDS        4.00        
   -1
aajustefino.Sample.asc
22/03/28
13:01:15.00
22/03/28
13:01:15.00
Administrator

200,000000
1
Lambda 1050
1050L1808311
PerkinElmer UV WinLab 6.4.0.973 / 2.02.11 Lambda 900 UV/VIS/NIR, May 23 2018 11:23:04

0
0
3350/servo 860,8/2
0
0
UV/VIS
1
1
1
CommonBeamDepol,RBeamAtt,SBeamAtt,60mm sphere
0
0
0
0
Program
Program
3350/servo 860,8/2
3350/0,2 860,8/0,2
3350/0,2 860,8/0,2
0
1.00
 
 
 
0
 
860,8
319,2
860,8
Front
100
on
S:100 R:100
 
0
0
0
 
0
 
 
 
0
 
 
0
0
0
0
0
 
 
 
 
0
0


0
0
#HDR
-1
-1
#GR
nm
%T
1.0
0.0
2000,000000
-1,000000
1801
8
362,851022
48,873231
#DATA
2000,000000	83,336285
1999,000000	83,374609
1998,000000	83,372706
1997,000000	83,298298
1996,000000	83,315929
1995,000000	83,243935
1994,000000	83,260903
1993,000000	83,220619
1992,000000	83,253884
1991,000000	83,234166
1990,000000	83,239218
1989,000000	83,155893
1988,000000	83,151876
1987,000000	83,145694
1986,000000	83,182063
1985,000000	83,177603
1984,000000	83,201662
1983,000000	83,079279
1982,000000	83,145482
1981,000000	83,095006
1980,000000	83,141355
1979,000000	83,116507
1978,000000	83,119650
1977,000000	83,077832
1976,000000	83,118724
1975,000000	83,115088
1974,000000	83,125386
1973,000000	83,037595
1972,000000	83,030942
1971,000000	83,023482
1970,000000	83,066299
1969,000000	83,058998
1968,000000	83,091518
1967,000000	83,025131
1966,000000	83,074823
1965,000000	83,053605
1964,000000	83,008006
1963,000000	83,039350
1962,000000	83,120237
1961,000000	83,043603
1960,000000	83,051786
1959,000000	83,039788
1958,000000	83,041460
1957,000000	83,029056
1956,000000	83,061955
1955,000000	83,037345
1954,000000	83,039156
1953,000000	83,013964
1952,000000	83,048731
1951,000000	83,023253
1950,000000	83,009454
1949,000000	83,029298
1948,000000	83,045561
1947,000000	82,996385
1946,000000	83,036092
1945,000000	83,059218
1944,000000	83,036196
1943,000000	83,018851
1942,000000	83,019710
1941,000000	83,016692
1940,000000	83,020156
1939,000000	82,963668
1938,000000	83,013260
1937,000000	83,020487
1936,000000	83,004850
1935,000000	82,992252
1934,000000	83,040633
1933,000000	83,022354
1932,000000	83,040555
1931,000000	83,045856
1930,000000	83,020798
1929,000000	82,966892
1928,000000	83,026646
1927,000000	82,982053
1926,000000	82,993981
1925,000000	82,982698
1924,000000	83,010013
1923,000000	83,004428
1922,000000	83,059601
1921,000000	82,957985
1920,000000	82,991001
1919,000000	82,979881
1918,000000	82,933055
1917,000000	82,853644
1916,000000	82,899780
1915,000000	82,894478
1914,000000	82,885167
1913,000000	82,837590
1912,000000	82,837296
1911,000000	82,812520
1910,000000	82,809196
1909,000000	82,769451
1908,000000	82,709044
1907,000000	82,672356
1906,000000	82,712455
1905,000000	82,658994
1904,000000	82,667344
1903,000000	82,655350
1902,000000	82,635919
1901,000000	82,539901
1900,000000	82,488388
1899,000000	82,474637
1898,000000	82,440603
1897,000000	82,355694
1896,000000	82,345210
1895,000000	82,307081
1894,000000	82,291414
1893,000000	82,249983
1892,000000	82,220832
1891,000000	82,171969
1890,000000	82,145655
1889,000000	82,109698
1888,000000	82,100628
1887,000000	82,101072
1886,000000	82,095471
1885,000000	82,030835
1884,000000	82,017956
1883,000000	82,004198
1882,000000	81,951708
1881,000000	81,934050
1880,000000	81,935830
1879,000000	81,917917
1878,000000	81,917787
1877,000000	81,912688
1876,000000	81,900466
1875,000000	81,903002
1874,000000	81,910490
1873,000000	81,860234
1872,000000	81,831464
1871,000000	81,787777
1870,000000	81,764448
1869,000000	81,751151
1868,000000	81,765626
1867,000000	81,709975
1866,000000	81,696236
1865,000000	81,737331
1864,000000	81,715462
1863,000000	81,714065
1862,000000	81,701199
1861,000000	81,645478
1860,000000	81,624663
1859,000000	81,593254
1858,000000	81,590986
1857,000000	81,602315
1856,000000	81,544867
1855,000000	81,519256
1854,000000	81,562363
1853,000000	81,550122
1852,000000	81,538448
1851,000000	81,522993
1850,000000	81,499464
1849,000000	81,489920
1848,000000	81,491592
1847,000000	81,510142
1846,000000	81,495595
1845,000000	81,472630
1844,000000	81,437816
1843,000000	81,406522
1842,000000	81,381558
1841,000000	81,405578
1840,000000	81,411835
1839,000000	81,397568
1838,000000	81,382084
1837,000000	81,361161
1836,000000	81,346916
1835,000000	81,344623
1834,000000	81,295506
1833,000000	81,260596
1832,000000	81,249517
1831,000000	81,233896
1830,000000	81,201212
1829,000000	81,199348
1828,000000	81,170508
1827,000000	81,165048
1826,000000	81,167252
1825,000000	81,133577
1824,000000	81,098838
1823,000000	81,082671
1822,000000	81,077384
1821,000000	81,077237
1820,000000	81,057892
1819,000000	81,023424
1818,000000	80,988747
1817,000000	80,978207
1816,000000	80,956403
1815,000000	80,956326
1814,000000	80,930135
1813,000000	80,907108
1812,000000	80,908110
1811,000000	80,924096
1810,000000	80,899042
1809,000000	80,872476
1808,000000	80,834856
1807,000000	80,856949
1806,000000	80,851997
1805,000000	80,816093
1804,000000	80,816453
1803,000000	80,804069
1802,000000	80,764186
1801,000000	80,750450
1800,000000	80,710931
1799,000000	80,708653
1798,000000	80,695514
1797,000000	80,677633
1796,000000	80,657816
1795,000000	80,672558
1794,000000	80,646133
1793,000000	80,638173
1792,000000	80,619859
1791,000000	80,607013
1790,000000	80,575620
1789,000000	80,580064
1788,000000	80,584899
1787,000000	80,569115
1786,000000	80,543110
1785,000000	80,544110
1784,000000	80,525839
1783,000000	80,546956
1782,000000	80,519589
1781,000000	80,515748
1780,000000	80,477043
1779,000000	80,464668
1778,000000	80,461209
1777,000000	80,469652
1776,000000	80,471932
1775,000000	80,448887
1774,000000	80,429804
1773,000000	80,440476
1772,000000	80,422240
1771,000000	80,431373
1770,000000	80,407121
1769,000000	80,411093
1768,000000	80,402055
1767,000000	80,409479
1766,000000	80,396068
1765,000000	80,420918
1764,000000	80,374192
1763,000000	80,397466
1762,000000	80,387049
1761,000000	80,388686
1760,000000	80,361688
1759,000000	80,389341
1758,000000	80,343729
1757,000000	80,353150
1756,000000	80,334634
1755,000000	80,350043
1754,000000	80,349203
1753,000000	80,355864
1752,000000	80,406844
1751,000000	80,382403
1750,000000	80,340173
1749,000000	80,338820
1748,000000	80,339503
1747,000000	80,349139
1746,000000	80,329598
1745,000000	80,353368
1744,000000	80,314259
1743,000000	80,307639
1742,000000	80,299563
1741,000000	80,329026
1740,000000	80,319474
1739,000000	80,318566
1738,000000	80,290782
1737,000000	80,280847
1736,000000	80,280391
1735,000000	80,271800
1734,000000	80,250096
1733,000000	80,282540
1732,000000	80,271854
1731,000000	80,280659
1730,000000	80,270338
1729,000000	80,281753
1728,000000	80,270834
1727,000000	80,271852
1726,000000	80,257450
1725,000000	80,278835
1724,000000	80,245596
1723,000000	80,260592
1722,000000	80,223118
1721,000000	80,252439
1720,000000	80,205048
1719,000000	80,211243
1718,000000	80,178826
1717,000000	80,186461
1716,000000	80,152638
1715,000000	80,165423
1714,000000	80,142111
1713,000000	80,132490
1712,000000	80,115231
1711,000000	80,118463
1710,000000	80,085458
1709,000000	80,053874
1708,000000	80,019245
1707,000000	79,994867
1706,000000	79,935920
1705,000000	79,893185
1704,000000	79,844397
1703,000000	79,844934
1702,000000	79,813567
1701,000000	79,796853
1700,000000	79,759291
1699,000000	79,753809
1698,000000	79,708847
1697,000000	79,724634
1696,000000	79,671058
1695,000000	79,658438
1694,000000	79,624307
1693,000000	79,614372
1692,000000	79,573403
1691,000000	79,589206
1690,000000	79,554910
1689,000000	79,543949
1688,000000	79,496166
1687,000000	79,514584
1686,000000	79,458947
1685,000000	79,466323
1684,000000	79,415974
1683,000000	79,410987
1682,000000	79,382738
1681,000000	79,383104
1680,000000	79,356452
1679,000000	79,348781
1678,000000	79,386438
1677,000000	79,385672
1676,000000	79,348616
1675,000000	79,401939
1674,000000	79,363811
1673,000000	79,380965
1672,000000	79,358762
1671,000000	79,407810
1670,000000	79,428130
1669,000000	79,414212
1668,000000	79,399049
1667,000000	79,445404
1666,000000	79,440783
1665,000000	79,468093
1664,000000	79,469714
1663,000000	79,482586
1662,000000	79,449901
1661,000000	79,485043
1660,000000	79,486890
1659,000000	79,506182
1658,000000	79,486550
1657,000000	79,504494
1656,000000	79,482797
1655,000000	79,541306
1654,000000	79,526599
1653,000000	79,519245
1652,000000	79,514242
1651,000000	79,512222
1650,000000	79,493422
1649,000000	79,476676
1648,000000	79,474477
1647,000000	79,474970
1646,000000	79,463001
1645,000000	79,469475
1644,000000	79,448474
1643,000000	79,445107
1642,000000	79,431231
1641,000000	79,429616
1640,000000	79,396187
1639,000000	79,404942
1638,000000	79,401251
1637,000000	79,408074
1636,000000	79,409849
1635,000000	79,419678
1634,000000	79,404945
1633,000000	79,415773
1632,000000	79,416223
1631,000000	79,436063
1630,000000	79,427399
1629,000000	79,428859
1628,000000	79,413718
1627,000000	79,410886
1626,000000	79,412973
1625,000000	79,424110
1624,000000	79,417054
1623,000000	79,418317
1622,000000	79,399598
1621,000000	79,431026
1620,000000	79,424047
1619,000000	79,423436
1618,000000	79,408295
1617,000000	79,420582
1616,000000	79,428969
1615,000000	79,426691
1614,000000	79,409340
1613,000000	79,408806
1612,000000	79,406701
1611,000000	79,407982
1610,000000	79,413717
1609,000000	79,400814
1608,000000	79,385591
1607,000000	79,406704
1606,000000	79,384612
1605,000000	79,366435
1604,000000	79,357109
1603,000000	79,368856
1602,000000	79,356031
1601,000000	79,344025
1600,000000	79,328592
1599,000000	79,345269
1598,000000	79,347927
1597,000000	79,351431
1596,000000	79,353533
1595,000000	79,342707
1594,000000	79,339031
1593,000000	79,325434
1592,000000	79,225417
1591,000000	79,061875
1590,000000	78,942292
1589,000000	78,933259
1588,000000	78,939809
1587,000000	78,946692
1586,000000	78,865299
1585,000000	78,742897
1584,000000	78,733535
1583,000000	78,727555
1582,000000	78,646676
1581,000000	78,536280
1580,000000	78,545536
1579,000000	78,558859
1578,000000	78,498048
1577,000000	78,393856
1576,000000	78,450563
1575,000000	78,622504
1574,000000	78,782295
1573,000000	78,755025
1572,000000	78,756368
1571,000000	78,750411
1570,000000	78,663140
1569,000000	78,636433
1568,000000	78,742741
1567,000000	78,743171
1566,000000	78,644015
1565,000000	78,533150
1564,000000	78,617270
1563,000000	78,712519
1562,000000	78,710958
1561,000000	78,605728
1560,000000	78,568751
1559,000000	78,680921
1558,000000	78,680890
1557,000000	78,683732
1556,000000	78,584081
1555,000000	78,465907
1554,000000	78,558397
1553,000000	78,664013
1552,000000	78,656194
1551,000000	78,658930
1550,000000	78,647734
1549,000000	78,634775
1548,000000	78,542167
1547,000000	78,536766
1546,000000	78,623548
1545,000000	78,625180
1544,000000	78,628235
1543,000000	78,620591
1542,000000	78,616763
1541,000000	78,600692
1540,000000	78,591698
1539,000000	78,580882
1538,000000	78,567729
1537,000000	78,562198
1536,000000	78,459396
1535,000000	78,479637
1534,000000	78,564906
1533,000000	78,555302
1532,000000	78,558401
1531,000000	78,544375
1530,000000	78,526973
1529,000000	78,516620
1528,000000	78,518015
1527,000000	78,511981
1526,000000	78,497707
1525,000000	78,494660
1524,000000	78,479415
1523,000000	78,476228
1522,000000	78,479919
1521,000000	78,445127
1520,000000	78,437858
1519,000000	78,438193
1518,000000	78,444844
1517,000000	78,441364
1516,000000	78,450527
1515,000000	78,452004
1514,000000	78,446219
1513,000000	78,425697
1512,000000	78,421286
1511,000000	78,287801
1510,000000	78,335414
1509,000000	78,405811
1508,000000	78,403930
1507,000000	78,402485
1506,000000	78,414160
1505,000000	78,397617
1504,000000	78,405741
1503,000000	78,389682
1502,000000	78,392463
1501,000000	78,378549
1500,000000	78,373830
1499,000000	78,355548
1498,000000	78,349358
1497,000000	78,351640
1496,000000	78,349746
1495,000000	78,337118
1494,000000	78,465452
1493,000000	78,417648
1492,000000	78,363877
1491,000000	78,339769
1490,000000	78,347278
1489,000000	78,336777
1488,000000	78,326385
1487,000000	78,310749
1486,000000	78,317435
1485,000000	78,319559
1484,000000	78,322966
1483,000000	78,438454
1482,000000	78,497584
1481,000000	78,473249
1480,000000	78,466203
1479,000000	78,459171
1478,000000	78,457340
1477,000000	78,328193
1476,000000	78,276161
1475,000000	78,252450
1474,000000	78,283324
1473,000000	78,252068
1472,000000	78,242573
1471,000000	78,216469
1470,000000	78,217402
1469,000000	78,207207
1468,000000	78,212933
1467,000000	78,204270
1466,000000	78,219173
1465,000000	78,219878
1464,000000	78,342038
1463,000000	78,254489
1462,000000	78,205656
1461,000000	78,191482
1460,000000	78,179702
1459,000000	78,159820
1458,000000	78,295668
1457,000000	78,197790
1456,000000	78,174125
1455,000000	78,152413
1454,000000	78,158447
1453,000000	78,138889
1452,000000	78,148071
1451,000000	78,147670
1450,000000	78,139593
1449,000000	78,107120
1448,000000	78,237095
1447,000000	78,263338
1446,000000	78,261057
1445,000000	78,244183
1444,000000	78,115620
1443,000000	78,069777
1442,000000	78,093523
1441,000000	78,077398
1440,000000	78,045721
1439,000000	78,041198
1438,000000	78,050998
1437,000000	78,039445
1436,000000	78,045414
1435,000000	78,012621
1434,000000	78,025526
1433,000000	78,008531
1432,000000	78,000523
1431,000000	77,979729
1430,000000	77,981486
1429,000000	77,960087
1428,000000	77,983430
1427,000000	77,956659
1426,000000	77,957101
1425,000000	77,923984
1424,000000	77,938266
1423,000000	77,944375
1422,000000	77,941123
1421,000000	77,952247
1420,000000	78,046483
1419,000000	77,920573
1418,000000	77,904592
1417,000000	78,007940
1416,000000	77,899128
1415,000000	77,860800
1414,000000	77,883492
1413,000000	77,974385
1412,000000	77,830625
1411,000000	77,677533
1410,000000	77,813307
1409,000000	77,797607
1408,000000	77,761877
1407,000000	77,909957
1406,000000	77,748359
1405,000000	77,693412
1404,000000	77,674612
1403,000000	77,665239
1402,000000	77,680932
1401,000000	77,628188
1400,000000	77,631995
1399,000000	77,635881
1398,000000	77,662150
1397,000000	77,654832
1396,000000	77,667743
1395,000000	77,637031
1394,000000	77,655028
1393,000000	77,753724
1392,000000	77,733175
1391,000000	77,705494
1390,000000	77,711726
1389,000000	77,681421
1388,000000	77,693159
1387,000000	77,642893
1386,000000	77,667012
1385,000000	77,635566
1384,000000	77,644053
1383,000000	77,616574
1382,000000	77,634089
1381,000000	77,610174
1380,000000	77,623052
1379,000000	77,460732
1378,000000	77,462720
1377,000000	77,447963
1376,000000	77,322065
1375,000000	77,434981
1374,000000	77,443594
1373,000000	77,395921
1372,000000	77,406478
1371,000000	77,382774
1370,000000	77,390181
1369,000000	77,359993
1368,000000	77,336958
1367,000000	77,304886
1366,000000	77,316628
1365,000000	77,294928
1364,000000	77,291870
1363,000000	77,262178
1362,000000	77,280441
1361,000000	77,417693
1360,000000	77,247310
1359,000000	77,236047
1358,000000	77,392627
1357,000000	77,341595
1356,000000	77,175249
1355,000000	77,155126
1354,000000	77,119231
1353,000000	77,136912
1352,000000	77,113415
1351,000000	77,114951
1350,000000	77,262109
1349,000000	77,205241
1348,000000	77,105883
1347,000000	77,087900
1346,000000	77,087636
1345,000000	77,057127
1344,000000	77,097783
1343,000000	77,165182
1342,000000	77,049606
1341,000000	77,075897
1340,000000	77,195854
1339,000000	77,069825
1338,000000	77,117964
1337,000000	77,158354
1336,000000	77,080311
1335,000000	77,081629
1334,000000	77,069918
1333,000000	77,160467
1332,000000	77,156135
1331,000000	77,138594
1330,000000	77,076390
1329,000000	77,069827
1328,000000	77,053968
1327,000000	77,022479
1326,000000	77,033587
1325,000000	77,029738
1324,000000	77,042408
1323,000000	77,021028
1322,000000	77,016358
1321,000000	77,018604
1320,000000	77,091078
1319,000000	77,086380
1318,000000	77,055709
1317,000000	76,972852
1316,000000	76,983498
1315,000000	76,971444
1314,000000	76,964896
1313,000000	76,970342
1312,000000	77,035999
1311,000000	77,032648
1310,000000	77,025474
1309,000000	76,987666
1308,000000	76,904923
1307,000000	76,897969
1306,000000	76,889648
1305,000000	76,857404
1304,000000	76,863489
1303,000000	76,854264
1302,000000	76,867761
1301,000000	76,855879
1300,000000	76,879210
1299,000000	76,926087
1298,000000	76,911596
1297,000000	76,877885
1296,000000	76,806143
1295,000000	76,796049
1294,000000	76,815076
1293,000000	76,849898
1292,000000	76,787585
1291,000000	76,780383
1290,000000	76,783828
1289,000000	76,801004
1288,000000	76,864096
1287,000000	76,817790
1286,000000	76,745976
1285,000000	76,739062
1284,000000	76,729939
1283,000000	76,716978
1282,000000	76,727051
1281,000000	76,750653
1280,000000	76,796199
1279,000000	76,790004
1278,000000	76,803445
1277,000000	76,785066
1276,000000	76,778589
1275,000000	76,761315
1274,000000	76,752866
1273,000000	76,733679
1272,000000	76,740049
1271,000000	76,727519
1270,000000	76,715829
1269,000000	76,703800
1268,000000	76,670807
1267,000000	76,617928
1266,000000	76,617721
1265,000000	76,603101
1264,000000	76,576944
1263,000000	76,571019
1262,000000	76,568630
1261,000000	76,546709
1260,000000	76,533820
1259,000000	76,515554
1258,000000	76,502788
1257,000000	76,504562
1256,000000	76,494827
1255,000000	76,469767
1254,000000	76,458585
1253,000000	76,438860
1252,000000	76,443101
1251,000000	76,445810
1250,000000	76,481939
1249,000000	76,474022
1248,000000	76,403594
1247,000000	76,388807
1246,000000	76,384808
1245,000000	76,371791
1244,000000	76,353272
1243,000000	76,370374
1242,000000	76,407031
1241,000000	76,424049
1240,000000	76,424545
1239,000000	76,375391
1238,000000	76,336412
1237,000000	76,332738
1236,000000	76,316906
1235,000000	76,316558
1234,000000	76,297041
1233,000000	76,310979
1232,000000	76,337896
1231,000000	76,324593
1230,000000	76,280885
1229,000000	76,245122
1228,000000	76,235199
1227,000000	76,224556
1226,000000	76,241109
1225,000000	76,274518
1224,000000	76,282663
1223,000000	76,235107
1222,000000	76,182404
1221,000000	76,162451
1220,000000	76,134650
1219,000000	76,138985
1218,000000	76,140925
1217,000000	76,121959
1216,000000	76,110075
1215,000000	76,104994
1214,000000	76,084619
1213,000000	76,072599
1212,000000	76,058961
1211,000000	76,111518
1210,000000	76,143960
1209,000000	76,089972
1208,000000	76,046326
1207,000000	76,041926
1206,000000	76,087991
1205,000000	76,054781
1204,000000	76,011853
1203,000000	76,030402
1202,000000	76,069468
1201,000000	76,103791
1200,000000	76,045731
1199,000000	76,018876
1198,000000	76,000775
1197,000000	75,992915
1196,000000	75,988662
1195,000000	75,981573
1194,000000	75,974454
1193,000000	75,974857
1192,000000	75,961246
1191,000000	75,984310
1190,000000	75,958057
1189,000000	75,932721
1188,000000	75,931358
1187,000000	75,953031
1186,000000	75,936682
1185,000000	75,930759
1184,000000	75,896404
1183,000000	75,880852
1182,000000	75,876639
1181,000000	75,915177
1180,000000	75,896025
1179,000000	75,876845
1178,000000	75,863989
1177,000000	75,873358
1176,000000	75,881872
1175,000000	75,882037
1174,000000	75,840535
1173,000000	75,828676
1172,000000	75,833344
1171,000000	75,849559
1170,000000	75,801834
1169,000000	75,808438
1168,000000	75,787933
1167,000000	75,793720
1166,000000	75,791611
1165,000000	75,800300
1164,000000	75,772320
1163,000000	75,786846
1162,000000	75,759699
1161,000000	75,820840
1160,000000	75,832335
1159,000000	75,820954
1158,000000	75,738776
1157,000000	75,719224
1156,000000	75,705602
1155,000000	75,718903
1154,000000	75,689946
1153,000000	75,681429
1152,000000	75,675267
1151,000000	75,675045
1150,000000	75,725734
1149,000000	75,739502
1148,000000	75,672777
1147,000000	75,680578
1146,000000	75,666386
1145,000000	75,668697
1144,000000	75,637556
1143,000000	75,640968
1142,000000	75,620887
1141,000000	75,646927
1140,000000	75,632354
1139,000000	75,618111
1138,000000	75,674139
1137,000000	75,699612
1136,000000	75,630051
1135,000000	75,617357
1134,000000	75,594310
1133,000000	75,626442
1132,000000	75,598289
1131,000000	75,608869
1130,000000	75,596248
1129,000000	75,609183
1128,000000	75,651619
1127,000000	75,587740
1126,000000	75,565464
1125,000000	75,566510
1124,000000	75,557304
1123,000000	75,540386
1122,000000	75,530202
1121,000000	75,517119
1120,000000	75,501122
1119,000000	75,514034
1118,000000	75,476357
1117,000000	75,488575
1116,000000	75,461683
1115,000000	75,466120
1114,000000	75,447687
1113,000000	75,458012
1112,000000	75,436550
1111,000000	75,437635
1110,000000	75,410325
1109,000000	75,418128
1108,000000	75,402199
1107,000000	75,375849
1106,000000	75,353157
1105,000000	75,363406
1104,000000	75,333188
1103,000000	75,342940
1102,000000	75,321854
1101,000000	75,315904
1100,000000	75,283484
1099,000000	75,309111
1098,000000	75,282191
1097,000000	75,285915
1096,000000	75,252820
1095,000000	75,266966
1094,000000	75,240715
1093,000000	75,245723
1092,000000	75,204384
1091,000000	75,238951
1090,000000	75,194764
1089,000000	75,133310
1088,000000	75,164266
1087,000000	75,134423
1086,000000	75,105592
1085,000000	75,112861
1084,000000	75,091602
1083,000000	75,100280
1082,000000	74,982746
1081,000000	75,033820
1080,000000	75,022535
1079,000000	75,046761
1078,000000	75,051860
1077,000000	75,048103
1076,000000	75,040846
1075,000000	75,002224
1074,000000	74,962311
1073,000000	74,969042
1072,000000	74,953517
1071,000000	74,977809
1070,000000	74,945942
1069,000000	74,926415
1068,000000	74,786080
1067,000000	74,892556
1066,000000	74,873070
1065,000000	74,889228
1064,000000	74,868040
1063,000000	74,876735
1062,000000	74,825461
1061,000000	74,744292
1060,000000	74,812405
1059,000000	74,827911
1058,000000	74,810724
1057,000000	74,797053
1056,000000	74,757183
1055,000000	74,688821
1054,000000	74,757230
1053,000000	74,770879
1052,000000	74,738222
1051,000000	74,734007
1050,000000	74,634070
1049,000000	74,718286
1048,000000	74,704521
1047,000000	74,717018
1046,000000	74,585882
1045,000000	74,610335
1044,000000	74,668065
1043,000000	74,669844
1042,000000	74,645152
1041,000000	74,562292
1040,000000	74,609505
1039,000000	74,608377
1038,000000	74,561797
1037,000000	74,470503
1036,000000	74,466589
1035,000000	74,564838
1034,000000	74,527012
1033,000000	74,438042
1032,000000	74,517699
1031,000000	74,549156
1030,000000	74,513609
1029,000000	74,435683
1028,000000	74,499686
1027,000000	74,475602
1026,000000	74,363380
1025,000000	74,392127
1024,000000	74,463272
1023,000000	74,447735
1022,000000	74,367284
1021,000000	74,429642
1020,000000	74,289783
1019,000000	74,301909
1018,000000	74,310773
1017,000000	74,370583
1016,000000	74,267018
1015,000000	74,408820
1014,000000	74,368536
1013,000000	74,271826
1012,000000	74,249231
1011,000000	74,236615
1010,000000	74,231530
1009,000000	74,281222
1008,000000	74,316052
1007,000000	74,212822
1006,000000	74,191356
1005,000000	74,200779
1004,000000	74,234323
1003,000000	74,306382
1002,000000	74,134314
1001,000000	74,053549
1000,000000	74,141871
999,000000	74,167641
998,000000	74,220287
997,000000	74,072976
996,000000	74,004060
995,000000	74,155728
994,000000	74,222438
993,000000	74,064410
992,000000	73,942581
991,000000	73,989096
990,000000	74,088844
989,000000	74,098540
988,000000	74,085511
987,000000	74,081238
986,000000	74,079688
985,000000	74,036326
984,000000	73,952730
983,000000	74,046663
982,000000	74,106019
981,000000	74,076363
980,000000	74,113769
979,000000	74,152591
978,000000	74,275800
977,000000	74,366665
976,000000	74,391002
975,000000	74,487632
974,000000	74,558378
973,000000	74,590032
972,000000	74,570617
971,000000	74,559664
970,000000	74,551537
969,000000	74,521861
968,000000	74,514416
967,000000	74,513807
966,000000	74,483871
965,000000	74,488756
964,000000	74,481353
963,000000	74,482845
962,000000	74,474900
961,000000	74,461302
960,000000	74,443123
959,000000	74,439496
958,000000	74,423988
957,000000	74,414947
956,000000	74,387602
955,000000	74,372548
954,000000	74,371156
953,000000	74,366292
952,000000	74,345509
951,000000	74,316425
950,000000	74,301943
949,000000	74,298262
948,000000	74,280040
947,000000	74,280414
946,000000	74,266697
945,000000	74,259267
944,000000	74,245629
943,000000	74,220737
942,000000	74,203372
941,000000	74,202732
940,000000	74,192248
939,000000	74,183819
938,000000	74,164656
937,000000	74,146964
936,000000	74,137052
935,000000	74,130604
934,000000	74,122411
933,000000	74,116914
932,000000	74,113492
931,000000	74,102165
930,000000	74,086176
929,000000	74,082547
928,000000	74,070634
927,000000	74,047787
926,000000	74,042258
925,000000	74,041731
924,000000	74,039793
923,000000	74,031918
922,000000	74,005103
921,000000	73,964783
920,000000	73,977335
919,000000	73,974553
918,000000	73,956457
917,000000	73,956017
916,000000	73,970374
915,000000	73,956902
914,000000	73,939905
913,000000	73,932273
912,000000	73,935027
911,000000	73,927967
910,000000	73,935937
909,000000	73,907087
908,000000	73,885859
907,000000	73,907644
906,000000	73,908481
905,000000	73,859424
904,000000	73,871515
903,000000	73,882897
902,000000	73,882583
901,000000	73,825744
900,000000	73,826856
899,000000	73,830065
898,000000	73,816740
897,000000	73,807925
896,000000	73,851473
895,000000	73,825199
894,000000	73,845223
893,000000	73,813831
892,000000	73,834369
891,000000	73,782800
890,000000	73,803087
889,000000	73,766668
888,000000	73,800627
887,000000	73,801298
886,000000	73,809984
885,000000	73,780032
884,000000	73,795442
883,000000	73,723643
882,000000	73,797217
881,000000	73,763920
880,000000	73,802113
879,000000	73,711422
878,000000	73,716069
877,000000	73,667454
876,000000	73,723758
875,000000	73,720552
874,000000	73,775010
873,000000	73,660528
872,000000	73,655829
871,000000	73,618914
870,000000	73,575316
869,000000	73,666368
868,000000	73,738974
867,000000	73,610662
866,000000	73,537828
865,000000	73,561981
864,000000	73,564540
863,000000	73,516104
862,000000	73,551294
861,000000	74,105125
860,000000	73,223649
859,000000	73,084188
858,000000	73,345670
857,000000	73,334355
856,000000	73,262280
855,000000	72,944088
854,000000	73,134878
853,000000	73,431336
852,000000	73,433270
851,000000	73,509940
850,000000	73,324475
849,000000	73,050638
848,000000	73,232685
847,000000	73,111625
846,000000	73,085182
845,000000	73,181149
844,000000	72,907814
843,000000	72,753686
842,000000	72,896297
841,000000	73,026715
840,000000	72,925980
839,000000	72,961711
838,000000	72,717946
837,000000	72,501617
836,000000	72,942589
835,000000	72,904149
834,000000	72,881146
833,000000	72,766762
832,000000	72,873958
831,000000	72,842710
830,000000	72,700873
829,000000	72,797395
828,000000	72,851216
827,000000	72,919508
826,000000	72,891898
825,000000	72,764230
824,000000	72,695880
823,000000	72,755447
822,000000	72,718349
821,000000	72,740805
820,000000	72,808734
819,000000	72,850565
818,000000	72,617380
817,000000	72,716891
816,000000	72,785467
815,000000	72,843373
814,000000	72,781271
813,000000	72,795461
812,000000	72,614401
811,000000	72,544422
810,000000	72,588061
809,000000	72,700731
808,000000	72,726443
807,000000	72,681323
806,000000	72,764644
805,000000	72,799130
804,000000	72,592905
803,000000	72,693762
802,000000	72,658357
801,000000	72,548152
800,000000	72,732321
799,000000	72,696610
798,000000	72,718704
797,000000	72,833936
796,000000	72,820247
795,000000	72,649230
794,000000	72,800797
793,000000	72,755213
792,000000	72,744204
791,000000	72,697562
790,000000	72,541347
789,000000	72,535966
788,000000	72,630834
787,000000	72,658943
786,000000	72,694986
785,000000	72,467888
784,000000	72,637570
783,000000	72,529654
782,000000	72,563218
781,000000	72,516077
780,000000	72,654858
779,000000	72,533431
778,000000	72,451275
777,000000	72,375776
776,000000	72,385565
775,000000	72,347112
774,000000	72,256058
773,000000	72,380412
772,000000	72,329756
771,000000	72,348195
770,000000	72,396113
769,000000	72,331665
768,000000	72,298208
767,000000	72,316900
766,000000	72,459728
765,000000	72,338100
764,000000	72,253989
763,000000	72,320813
762,000000	72,241998
761,000000	72,173040
760,000000	72,024879
759,000000	72,118559
758,000000	72,066873
757,000000	72,065266
756,000000	72,112358
755,000000	72,120391
754,000000	72,034262
753,000000	72,034996
752,000000	72,188091
751,000000	72,124708
750,000000	72,071661
749,000000	72,166984
748,000000	72,055164
747,000000	72,059326
746,000000	72,032349
745,000000	72,027308
744,000000	71,980922
743,000000	72,067430
742,000000	72,062609
741,000000	72,056981
740,000000	72,041901
739,000000	72,098163
738,000000	72,048758
737,000000	71,997735
736,000000	71,960009
735,000000	72,091844
734,000000	71,930578
733,000000	71,941728
732,000000	72,092915
731,000000	71,951316
730,000000	71,909800
729,000000	71,993299
728,000000	71,948501
727,000000	71,991423
726,000000	72,064448
725,000000	72,010623
724,000000	71,951129
723,000000	71,942072
722,000000	71,963960
721,000000	71,845479
720,000000	71,898341
719,000000	71,939882
718,000000	71,812536
717,000000	71,819227
716,000000	71,832347
715,000000	71,791157
714,000000	71,799346
713,000000	71,695576
712,000000	71,735748
711,000000	71,761623
710,000000	71,643652
709,000000	71,620996
708,000000	71,624056
707,000000	71,618317
706,000000	71,643283
705,000000	71,618043
704,000000	71,538596
703,000000	71,573315
702,000000	71,514293
701,000000	71,533096
700,000000	71,572061
699,000000	71,503193
698,000000	71,516141
697,000000	71,494924
696,000000	71,452444
695,000000	71,461867
694,000000	71,392742
693,000000	71,402979
692,000000	71,410988
691,000000	71,428501
690,000000	71,329149
689,000000	71,289350
688,000000	71,228149
687,000000	71,245310
686,000000	71,321836
685,000000	71,327019
684,000000	71,252658
683,000000	71,225793
682,000000	71,253840
681,000000	71,246218
680,000000	71,259698
679,000000	71,323765
678,000000	71,295222
677,000000	71,223412
676,000000	71,232035
675,000000	71,233374
674,000000	71,179747
673,000000	71,172733
672,000000	71,132168
671,000000	71,175802
670,000000	71,196925
669,000000	71,135772
668,000000	71,100059
667,000000	71,102724
666,000000	71,104100
665,000000	71,088582
664,000000	71,017927
663,000000	70,992990
662,000000	71,000261
661,000000	70,995460
660,000000	71,010827
659,000000	70,968565
658,000000	70,907593
657,000000	70,886674
656,000000	70,861036
655,000000	70,880348
654,000000	70,853359
653,000000	70,835326
652,000000	70,832746
651,000000	70,815112
650,000000	70,819030
649,000000	70,802236
648,000000	70,763257
647,000000	70,735850
646,000000	70,765900
645,000000	70,756466
644,000000	70,668805
643,000000	70,646070
642,000000	70,689132
641,000000	70,691372
640,000000	70,659250
639,000000	70,683586
638,000000	70,712859
637,000000	70,659722
636,000000	70,581297
635,000000	70,565841
634,000000	70,553907
633,000000	70,571130
632,000000	70,570756
631,000000	70,521504
630,000000	70,486675
629,000000	70,496259
628,000000	70,499829
627,000000	70,505489
626,000000	70,538807
625,000000	70,511010
624,000000	70,486492
623,000000	70,479661
622,000000	70,451494
621,000000	70,433370
620,000000	70,400253
619,000000	70,372161
618,000000	70,373158
617,000000	70,376799
616,000000	70,327690
615,000000	70,300428
614,000000	70,316660
613,000000	70,291308
612,000000	70,225445
611,000000	70,221887
610,000000	70,205974
609,000000	70,190766
608,000000	70,144812
607,000000	70,118399
606,000000	70,117735
605,000000	70,145358
604,000000	70,075044
603,000000	70,015593
602,000000	70,032035
601,000000	70,075806
600,000000	70,043162
599,000000	70,001773
598,000000	70,012537
597,000000	69,991672
596,000000	70,004566
595,000000	69,926823
594,000000	69,924816
593,000000	69,920738
592,000000	69,884127
591,000000	69,876567
590,000000	69,826040
589,000000	69,809666
588,000000	69,836743
587,000000	69,838200
586,000000	69,795236
585,000000	69,757211
584,000000	69,782244
583,000000	69,774928
582,000000	69,749461
581,000000	69,713904
580,000000	69,715753
579,000000	69,661605
578,000000	69,689456
577,000000	69,657485
576,000000	69,586876
575,000000	69,573081
574,000000	69,593394
573,000000	69,574483
572,000000	69,597983
571,000000	69,549811
570,000000	69,526001
569,000000	69,490550
568,000000	69,515304
567,000000	69,447614
566,000000	69,379837
565,000000	69,368156
564,000000	69,330553
563,000000	69,313330
562,000000	69,375920
561,000000	69,430008
560,000000	69,449058
559,000000	69,411337
558,000000	69,389494
557,000000	69,366454
556,000000	69,354427
555,000000	69,366445
554,000000	69,361951
553,000000	69,328265
552,000000	69,314655
551,000000	69,278691
550,000000	69,320156
549,000000	69,296687
548,000000	69,261225
547,000000	69,224598
546,000000	69,207776
545,000000	69,174274
544,000000	69,189183
543,000000	69,163576
542,000000	69,221375
541,000000	69,119192
540,000000	69,082676
539,000000	69,072605
538,000000	69,082603
537,000000	69,063208
536,000000	69,008496
535,000000	68,986320
534,000000	68,948020
533,000000	68,937876
532,000000	68,943196
531,000000	68,867376
530,000000	68,856619
529,000000	68,745048
528,000000	68,664392
527,000000	68,653870
526,000000	68,581422
525,000000	68,652606
524,000000	68,631467
523,000000	68,638082
522,000000	68,571070
521,000000	68,563006
520,000000	68,528788
519,000000	68,465594
518,000000	68,474415
517,000000	68,455129
516,000000	68,377909
515,000000	68,316190
514,000000	68,274861
513,000000	68,256183
512,000000	68,221722
511,000000	68,158919
510,000000	68,076013
509,000000	68,077519
508,000000	68,011615
507,000000	67,997015
506,000000	67,962347
505,000000	67,905031
504,000000	67,848934
503,000000	67,859997
502,000000	67,840512
501,000000	67,822454
500,000000	67,795214
499,000000	67,825643
498,000000	67,833665
497,000000	67,805214
496,000000	67,818810
495,000000	67,721976
494,000000	67,796481
493,000000	67,744242
492,000000	67,756896
491,000000	67,697465
490,000000	67,721178
489,000000	67,792366
488,000000	67,735857
487,000000	67,678264
486,000000	67,716114
485,000000	67,727973
484,000000	67,694829
483,000000	67,705043
482,000000	67,676346
481,000000	67,685243
480,000000	67,539326
479,000000	67,481249
478,000000	67,374183
477,000000	67,360519
476,000000	67,326771
475,000000	67,269760
474,000000	67,242421
473,000000	67,159760
472,000000	67,170815
471,000000	67,105362
470,000000	67,065609
469,000000	67,020686
468,000000	66,900242
467,000000	66,831321
466,000000	66,709819
465,000000	66,669202
464,000000	66,657813
463,000000	66,600175
462,000000	66,562174
461,000000	66,448671
460,000000	66,390998
459,000000	66,397030
458,000000	66,381643
457,000000	66,365539
456,000000	66,266795
455,000000	66,233670
454,000000	66,175793
453,000000	66,106240
452,000000	66,151013
451,000000	66,054596
450,000000	65,981108
449,000000	65,936118
448,000000	65,842192
447,000000	65,743430
446,000000	65,605159
445,000000	65,498490
444,000000	65,514976
443,000000	65,382152
442,000000	65,275535
441,000000	65,098166
440,000000	64,944160
439,000000	64,824887
438,000000	64,670812
437,000000	64,439584
436,000000	64,242742
435,000000	63,972807
434,000000	63,716389
433,000000	63,366534
432,000000	63,070555
431,000000	62,615766
430,000000	62,203722
429,000000	61,773090
428,000000	61,155279
427,000000	60,520928
426,000000	59,843901
425,000000	59,122069
424,000000	58,321485
423,000000	57,596904
422,000000	56,736822
421,000000	55,835152
420,000000	54,987243
419,000000	54,104289
418,000000	53,248423
417,000000	52,414436
416,000000	51,628439
415,000000	50,971096
414,000000	50,386009
413,000000	49,902238
412,000000	49,522819
411,000000	49,263112
410,000000	49,029116
409,000000	48,910762
408,000000	48,873231
407,000000	48,942568
406,000000	49,070157
405,000000	49,207379
404,000000	49,390484
403,000000	49,625265
402,000000	49,894569
401,000000	50,167225
400,000000	50,494556
399,000000	50,841245
398,000000	51,157251
397,000000	51,390110
396,000000	51,613928
395,000000	51,980129
394,000000	52,247728
393,000000	52,535758
392,000000	52,840995
391,000000	53,108639
390,000000	53,351264
389,000000	53,578093
388,000000	53,853794
387,000000	54,123178
386,000000	54,317977
385,000000	54,579030
384,000000	54,802642
383,000000	55,010810
382,000000	55,364016
381,000000	55,590608
380,000000	55,877346
379,000000	56,000158
378,000000	56,539323
377,000000	57,706458
376,000000	57,916061
375,000000	58,236158
374,000000	58,950816
373,000000	59,723586
372,000000	60,500494
371,000000	61,368612
370,000000	62,457894
369,000000	63,252610
368,000000	64,176446
367,000000	65,233379
366,000000	66,123261
365,000000	67,191869
364,000000	67,963283
363,000000	68,863802
362,000000	69,609504
361,000000	70,532630
360,000000	71,685311
359,000000	72,193456
358,000000	72,725603
357,000000	73,372380
356,000000	73,919576
355,000000	74,396692
354,000000	75,155367
353,000000	76,157064
352,000000	76,794784
351,000000	77,407572
350,000000	78,371108
349,000000	78,962357
348,000000	79,164399
347,000000	79,692745
346,000000	80,356547
345,000000	80,478426
344,000000	80,626861
343,000000	81,164756
342,000000	81,426222
341,000000	81,035391
340,000000	81,309430
339,000000	81,775157
338,000000	81,909227
337,000000	82,077601
336,000000	81,428304
335,000000	80,937871
334,000000	80,875426
333,000000	80,634608
332,000000	80,753655
331,000000	80,858654
330,000000	80,668299
329,000000	80,463086
328,000000	80,658260
327,000000	80,526916
326,000000	80,591518
325,000000	81,218693
324,000000	80,597658
323,000000	80,666949
322,000000	81,309907
321,000000	80,611826
320,000000	80,449834
319,000000	80,934343
318,000000	81,084376
317,000000	81,262093
316,000000	81,268521
315,000000	81,428508
314,000000	81,578302
313,000000	81,838413
312,000000	82,151871
311,000000	82,204250
310,000000	82,303380
309,000000	82,601110
308,000000	83,183273
307,000000	83,881653
306,000000	84,645231
305,000000	85,326476
304,000000	86,216076
303,000000	86,787542
302,000000	87,221852
301,000000	87,514838
300,000000	87,855513
299,000000	88,352026
298,000000	88,868191
297,000000	89,477625
296,000000	90,027577
295,000000	90,589541
294,000000	91,440315
293,000000	92,066529
292,000000	92,819542
291,000000	93,483406
290,000000	94,310230
289,000000	95,131810
288,000000	95,981486
287,000000	96,673982
286,000000	97,479045
285,000000	98,348125
284,000000	99,122795
283,000000	99,740378
282,000000	100,452330
281,000000	100,955043
280,000000	101,379887
279,000000	101,614095
278,000000	101,894308
277,000000	102,159988
276,000000	102,363284
275,000000	102,805289
274,000000	103,108228
273,000000	103,279571
272,000000	103,562112
271,000000	103,834575
270,000000	104,079508
269,000000	104,308284
268,000000	104,889073
267,000000	105,382558
266,000000	106,088148
265,000000	106,951389
264,000000	108,098573
263,000000	109,607096
262,000000	111,050594
261,000000	112,406289
260,000000	113,619978
259,000000	115,213133
258,000000	116,535741
257,000000	117,766004
256,000000	119,246717
255,000000	120,732979
254,000000	122,463707
253,000000	123,856787
252,000000	125,756655
251,000000	127,768442
250,000000	129,765107
249,000000	131,806119
248,000000	133,243865
247,000000	134,499518
246,000000	135,881786
245,000000	137,841200
244,000000	139,731166
243,000000	142,005190
242,000000	144,195081
241,000000	146,517871
240,000000	147,683007
239,000000	151,422633
238,000000	154,160031
237,000000	157,469451
236,000000	161,429310
235,000000	165,623762
234,000000	169,765022
233,000000	173,286060
232,000000	176,831517
231,000000	180,579970
230,000000	183,471694
229,000000	187,333029
228,000000	190,808186
227,000000	194,494337
226,000000	198,189111
225,000000	201,985608
224,000000	205,638179
223,000000	209,274726
222,000000	213,132608
221,000000	216,229285
220,000000	219,746935
219,000000	222,556946
218,000000	225,769973
217,000000	229,650970
216,000000	233,050228
215,000000	236,645434
214,000000	240,268420
213,000000	243,695743
212,000000	248,167774
211,000000	253,526341
210,000000	258,464476
209,000000	264,173839
208,000000	270,929929
207,000000	279,355037
206,000000	287,862517
205,000000	297,785488
204,000000	307,615514
203,000000	320,441918
202,000000	332,632271
201,000000	348,981297
200,000000	362,851022
