PE UV       SUBTECH     SPECTRUM    ASCII       PEDS        4.00        
   -1
ateste.Sample.asc
22/03/28
11:24:51.00
22/03/28
11:24:51.00
Administrator

200,000000
1
Lambda 1050
1050L1808311
PerkinElmer UV WinLab 6.4.0.973 / 2.02.11 Lambda 900 UV/VIS/NIR, May 23 2018 11:23:04

0
0
3350/servo 860,8/2
0
0
UV/VIS
1
1
1
CommonBeamDepol,RBeamAtt,SBeamAtt,60mm sphere
0
0
0
0
Program
Program
3350/servo 860,8/2
3350/0,2 860,8/0,2
3350/0,2 860,8/0,2
0
1.00
 
 
 
0
 
860,8
319,2
860,8
Front
100
on
S:100 R:100
 
0
0
0
 
0
 
 
 
0
 
 
0
0
0
0
0
 
 
 
 
0
0


0
0
#HDR
-1
-1
#GR
nm
%T
1.0
0.0
2000,000000
-10,000000
181
8
376,307931
49,770056
#DATA
2000,000000	83,125334
1990,000000	82,931778
1980,000000	82,733075
1970,000000	82,656609
1960,000000	82,641781
1950,000000	82,596105
1940,000000	82,559697
1930,000000	82,572361
1920,000000	82,448400
1910,000000	82,369734
1900,000000	81,980588
1890,000000	81,632493
1880,000000	81,440338
1870,000000	81,265713
1860,000000	81,121230
1850,000000	81,013716
1840,000000	80,864567
1830,000000	80,626656
1820,000000	80,510112
1810,000000	80,335837
1800,000000	80,244266
1790,000000	80,117502
1780,000000	80,033565
1770,000000	79,945789
1760,000000	79,913376
1750,000000	79,931909
1740,000000	79,960093
1730,000000	79,922044
1720,000000	79,872092
1710,000000	79,761022
1700,000000	79,546772
1690,000000	79,351003
1680,000000	79,358315
1670,000000	79,379938
1660,000000	79,460199
1650,000000	79,462458
1640,000000	79,411560
1630,000000	79,392157
1620,000000	79,369743
1610,000000	79,298215
1600,000000	79,149429
1590,000000	79,092989
1580,000000	79,034583
1570,000000	78,978356
1560,000000	78,664402
1550,000000	77,791301
1540,000000	77,300447
1530,000000	77,419466
1520,000000	77,752885
1510,000000	78,070287
1500,000000	78,269009
1490,000000	78,169958
1480,000000	77,972047
1470,000000	77,790602
1460,000000	77,672055
1450,000000	77,496879
1440,000000	77,497113
1430,000000	77,589101
1420,000000	77,605497
1410,000000	77,481145
1400,000000	77,338654
1390,000000	77,100393
1380,000000	76,966104
1370,000000	76,854733
1360,000000	76,541088
1350,000000	76,298651
1340,000000	76,351809
1330,000000	76,512521
1320,000000	76,528136
1310,000000	76,551150
1300,000000	76,384816
1290,000000	76,251718
1280,000000	76,190127
1270,000000	76,116307
1260,000000	76,027609
1250,000000	75,947540
1240,000000	75,785327
1230,000000	75,713427
1220,000000	75,639390
1210,000000	75,604207
1200,000000	75,522554
1190,000000	75,483666
1180,000000	75,324718
1170,000000	75,252854
1160,000000	75,211188
1150,000000	75,231646
1140,000000	75,211125
1130,000000	75,127972
1120,000000	74,975134
1110,000000	74,847809
1100,000000	74,727222
1090,000000	74,620591
1080,000000	74,516208
1070,000000	74,399516
1060,000000	74,298410
1050,000000	74,220932
1040,000000	74,158996
1030,000000	74,097760
1020,000000	73,996313
1010,000000	73,878797
1000,000000	73,739912
990,000000	73,606468
980,000000	73,482297
970,000000	73,450271
960,000000	73,605686
950,000000	73,753959
940,000000	73,653227
930,000000	73,563757
920,000000	73,472270
910,000000	73,403080
900,000000	73,332790
890,000000	73,291689
880,000000	73,235745
870,000000	73,091142
860,000000	72,803169
850,000000	72,614943
840,000000	72,719194
830,000000	72,695344
820,000000	72,590586
810,000000	72,585147
800,000000	72,494900
790,000000	72,253090
780,000000	72,110230
770,000000	71,948372
760,000000	71,895664
750,000000	71,803310
740,000000	71,738659
730,000000	71,627656
720,000000	71,499950
710,000000	71,283476
700,000000	71,201906
690,000000	71,132047
680,000000	70,988715
670,000000	70,811221
660,000000	70,619434
650,000000	70,455252
640,000000	70,360267
630,000000	70,249754
620,000000	70,053457
610,000000	69,839874
600,000000	69,678026
590,000000	69,545126
580,000000	69,370854
570,000000	69,178698
560,000000	69,035561
550,000000	68,870123
540,000000	68,621016
530,000000	68,374026
520,000000	68,086178
510,000000	67,757262
500,000000	67,520403
490,000000	67,272773
480,000000	66,975064
470,000000	66,647523
460,000000	66,162212
450,000000	65,565841
440,000000	64,356984
430,000000	61,159121
420,000000	54,831707
410,000000	49,770056
400,000000	50,495254
390,000000	53,291508
380,000000	56,452158
370,000000	62,609916
360,000000	71,303045
350,000000	78,083256
340,000000	81,745320
330,000000	81,650289
320,000000	81,419865
310,000000	84,119567
300,000000	89,111222
290,000000	95,248448
280,000000	101,410811
270,000000	105,848180
260,000000	114,788507
250,000000	130,617913
240,000000	152,194385
230,000000	184,333720
220,000000	221,649781
210,000000	269,624016
200,000000	376,307931
