PE UV       SUBTECH     SPECTRUM    ASCII       PEDS        4.00        
   -1
b.Sample.asc
22/03/28
13:19:52.00
22/03/28
13:19:52.00
Administrator

200,000000
1
Lambda 1050
1050L1808311
PerkinElmer UV WinLab 6.4.0.973 / 2.02.11 Lambda 900 UV/VIS/NIR, May 23 2018 11:23:04

0
0
3350/servo 860,8/2
0
0
UV/VIS
1
1
1
CommonBeamDepol,RBeamAtt,SBeamAtt,60mm sphere
0
0
0
0
Program
Program
3350/servo 860,8/2
3350/0,2 860,8/0,2
3350/0,2 860,8/0,2
0
1.00
 
 
 
0
 
860,8
319,2
860,8
Front
100
on
S:100 R:100
 
0
0
0
 
0
 
 
 
0
 
 
0
0
0
0
0
 
 
 
 
0
0


0
0
#HDR
-1
-1
#GR
nm
%T
1.0
0.0
2000,000000
-1,000000
1801
8
92,142325
87,304721
#DATA
2000,000000	91,982147
1999,000000	92,016920
1998,000000	92,068340
1997,000000	91,966982
1996,000000	91,963323
1995,000000	91,970188
1994,000000	91,943423
1993,000000	91,969433
1992,000000	92,009169
1991,000000	91,996998
1990,000000	91,974692
1989,000000	91,958638
1988,000000	91,964106
1987,000000	91,946705
1986,000000	91,960368
1985,000000	91,948890
1984,000000	91,980200
1983,000000	91,919854
1982,000000	91,993738
1981,000000	91,993103
1980,000000	91,968645
1979,000000	91,974521
1978,000000	91,928708
1977,000000	91,970604
1976,000000	92,018747
1975,000000	91,954335
1974,000000	91,955799
1973,000000	91,923552
1972,000000	91,951272
1971,000000	91,946251
1970,000000	91,964750
1969,000000	91,945550
1968,000000	91,947007
1967,000000	91,953757
1966,000000	91,930515
1965,000000	91,925599
1964,000000	91,957843
1963,000000	91,965593
1962,000000	91,987460
1961,000000	91,931163
1960,000000	91,933876
1959,000000	91,943712
1958,000000	91,934217
1957,000000	91,989770
1956,000000	91,980578
1955,000000	91,961898
1954,000000	91,958181
1953,000000	91,946573
1952,000000	91,983135
1951,000000	91,988007
1950,000000	91,984969
1949,000000	91,932253
1948,000000	91,979369
1947,000000	91,973172
1946,000000	91,978331
1945,000000	91,956608
1944,000000	91,928909
1943,000000	91,951023
1942,000000	91,965728
1941,000000	91,937339
1940,000000	91,926227
1939,000000	91,980314
1938,000000	91,985045
1937,000000	91,934912
1936,000000	91,935258
1935,000000	91,947991
1934,000000	91,954786
1933,000000	91,952108
1932,000000	91,995063
1931,000000	91,970179
1930,000000	91,914703
1929,000000	91,937733
1928,000000	91,954422
1927,000000	92,019977
1926,000000	91,985021
1925,000000	92,001165
1924,000000	92,052875
1923,000000	92,051309
1922,000000	92,008713
1921,000000	91,994704
1920,000000	91,998192
1919,000000	91,955486
1918,000000	91,972550
1917,000000	91,947478
1916,000000	91,938835
1915,000000	91,934187
1914,000000	91,937666
1913,000000	91,901576
1912,000000	91,888456
1911,000000	91,879387
1910,000000	91,889772
1909,000000	91,887548
1908,000000	91,870453
1907,000000	91,901801
1906,000000	91,934997
1905,000000	91,905176
1904,000000	91,944541
1903,000000	91,956428
1902,000000	91,934139
1901,000000	91,910947
1900,000000	91,905474
1899,000000	91,876842
1898,000000	91,860860
1897,000000	91,852167
1896,000000	91,890048
1895,000000	91,904936
1894,000000	91,885605
1893,000000	91,875475
1892,000000	91,895890
1891,000000	91,893269
1890,000000	91,894506
1889,000000	91,902210
1888,000000	91,911841
1887,000000	91,917952
1886,000000	91,915002
1885,000000	91,910498
1884,000000	91,930038
1883,000000	91,917353
1882,000000	91,910258
1881,000000	91,894088
1880,000000	91,896941
1879,000000	91,899879
1878,000000	91,898757
1877,000000	91,888799
1876,000000	91,881154
1875,000000	91,898716
1874,000000	91,934147
1873,000000	91,898078
1872,000000	91,870609
1871,000000	91,855090
1870,000000	91,867721
1869,000000	91,870978
1868,000000	91,865607
1867,000000	91,845603
1866,000000	91,856133
1865,000000	91,883534
1864,000000	91,919254
1863,000000	91,926094
1862,000000	91,918301
1861,000000	91,931251
1860,000000	91,919943
1859,000000	91,882244
1858,000000	91,886776
1857,000000	91,898601
1856,000000	91,885508
1855,000000	91,907636
1854,000000	91,940446
1853,000000	91,918521
1852,000000	91,898091
1851,000000	91,901494
1850,000000	91,888091
1849,000000	91,888244
1848,000000	91,888060
1847,000000	91,892275
1846,000000	91,906720
1845,000000	91,894184
1844,000000	91,873181
1843,000000	91,857171
1842,000000	91,853848
1841,000000	91,875046
1840,000000	91,875837
1839,000000	91,876311
1838,000000	91,866099
1837,000000	91,881992
1836,000000	91,884047
1835,000000	91,851404
1834,000000	91,831368
1833,000000	91,847464
1832,000000	91,850484
1831,000000	91,851534
1830,000000	91,853518
1829,000000	91,839771
1828,000000	91,831482
1827,000000	91,851794
1826,000000	91,869273
1825,000000	91,852155
1824,000000	91,846385
1823,000000	91,859681
1822,000000	91,869501
1821,000000	91,868116
1820,000000	91,865223
1819,000000	91,878701
1818,000000	91,879884
1817,000000	91,866079
1816,000000	91,851344
1815,000000	91,845824
1814,000000	91,814615
1813,000000	91,828331
1812,000000	91,853907
1811,000000	91,868235
1810,000000	91,871183
1809,000000	91,861151
1808,000000	91,842267
1807,000000	91,868256
1806,000000	91,871640
1805,000000	91,865439
1804,000000	91,880922
1803,000000	91,870206
1802,000000	91,868033
1801,000000	91,879377
1800,000000	91,863396
1799,000000	91,872763
1798,000000	91,878467
1797,000000	91,884370
1796,000000	91,859822
1795,000000	91,863724
1794,000000	91,863584
1793,000000	91,859165
1792,000000	91,865926
1791,000000	91,870456
1790,000000	91,841080
1789,000000	91,827069
1788,000000	91,836205
1787,000000	91,874989
1786,000000	91,852708
1785,000000	91,852527
1784,000000	91,849394
1783,000000	91,866100
1782,000000	91,847446
1781,000000	91,853885
1780,000000	91,848069
1779,000000	91,835309
1778,000000	91,851504
1777,000000	91,872392
1776,000000	91,892239
1775,000000	91,850562
1774,000000	91,869913
1773,000000	91,870291
1772,000000	91,826565
1771,000000	91,837302
1770,000000	91,863016
1769,000000	91,873997
1768,000000	91,877835
1767,000000	91,848919
1766,000000	91,865741
1765,000000	91,868517
1764,000000	91,833434
1763,000000	91,849912
1762,000000	91,855582
1761,000000	91,867571
1760,000000	91,819426
1759,000000	91,833963
1758,000000	91,833500
1757,000000	91,824529
1756,000000	91,837775
1755,000000	91,853259
1754,000000	91,858676
1753,000000	91,860464
1752,000000	91,849180
1751,000000	91,852903
1750,000000	91,824701
1749,000000	91,820128
1748,000000	91,818720
1747,000000	91,814856
1746,000000	91,809225
1745,000000	91,843967
1744,000000	91,808655
1743,000000	91,788143
1742,000000	91,822776
1741,000000	91,828972
1740,000000	91,837665
1739,000000	91,838421
1738,000000	91,849005
1737,000000	91,837986
1736,000000	91,830871
1735,000000	91,830043
1734,000000	91,826796
1733,000000	91,831477
1732,000000	91,843745
1731,000000	91,835288
1730,000000	91,848019
1729,000000	91,858112
1728,000000	91,843695
1727,000000	91,840401
1726,000000	91,828313
1725,000000	91,858856
1724,000000	91,845173
1723,000000	91,832795
1722,000000	91,811695
1721,000000	91,850664
1720,000000	91,829883
1719,000000	91,834472
1718,000000	91,839716
1717,000000	91,856490
1716,000000	91,855214
1715,000000	91,829903
1714,000000	91,816381
1713,000000	91,818786
1712,000000	91,801999
1711,000000	91,822053
1710,000000	91,820135
1709,000000	91,835293
1708,000000	91,836293
1707,000000	91,821211
1706,000000	91,833379
1705,000000	91,811886
1704,000000	91,823478
1703,000000	91,818052
1702,000000	91,823484
1701,000000	91,834845
1700,000000	91,818781
1699,000000	91,835152
1698,000000	91,813796
1697,000000	91,857244
1696,000000	91,853621
1695,000000	91,849636
1694,000000	91,827344
1693,000000	91,831341
1692,000000	91,823596
1691,000000	91,856756
1690,000000	91,862880
1689,000000	91,837712
1688,000000	91,809692
1687,000000	91,828447
1686,000000	91,812824
1685,000000	91,825343
1684,000000	91,832790
1683,000000	91,823793
1682,000000	91,801925
1681,000000	91,819904
1680,000000	91,797261
1679,000000	91,816876
1678,000000	91,832539
1677,000000	91,838921
1676,000000	91,831822
1675,000000	91,830177
1674,000000	91,802098
1673,000000	91,814315
1672,000000	91,776620
1671,000000	91,823451
1670,000000	91,843820
1669,000000	91,825241
1668,000000	91,795749
1667,000000	91,791475
1666,000000	91,817219
1665,000000	91,807304
1664,000000	91,806976
1663,000000	91,841571
1662,000000	91,800428
1661,000000	91,800367
1660,000000	91,818633
1659,000000	91,831918
1658,000000	91,799048
1657,000000	91,826991
1656,000000	91,803678
1655,000000	91,849217
1654,000000	91,835154
1653,000000	91,845088
1652,000000	91,856956
1651,000000	91,847748
1650,000000	91,822126
1649,000000	91,809188
1648,000000	91,797775
1647,000000	91,798477
1646,000000	91,819455
1645,000000	91,807340
1644,000000	91,791986
1643,000000	91,785710
1642,000000	91,807444
1641,000000	91,792598
1640,000000	91,775392
1639,000000	91,773607
1638,000000	91,767327
1637,000000	91,778214
1636,000000	91,778907
1635,000000	91,798676
1634,000000	91,795953
1633,000000	91,790420
1632,000000	91,801219
1631,000000	91,795338
1630,000000	91,795105
1629,000000	91,800423
1628,000000	91,788439
1627,000000	91,774934
1626,000000	91,770407
1625,000000	91,794303
1624,000000	91,800341
1623,000000	91,803492
1622,000000	91,805160
1621,000000	91,807064
1620,000000	91,812963
1619,000000	91,815589
1618,000000	91,822725
1617,000000	91,819523
1616,000000	91,817237
1615,000000	91,803825
1614,000000	91,804492
1613,000000	91,794486
1612,000000	91,799711
1611,000000	91,806309
1610,000000	91,821175
1609,000000	91,794790
1608,000000	91,767357
1607,000000	91,770329
1606,000000	91,767469
1605,000000	91,770230
1604,000000	91,767933
1603,000000	91,786887
1602,000000	91,773917
1601,000000	91,751860
1600,000000	91,736418
1599,000000	91,751744
1598,000000	91,759162
1597,000000	91,778948
1596,000000	91,788987
1595,000000	91,789478
1594,000000	91,795173
1593,000000	91,784974
1592,000000	91,765856
1591,000000	91,775253
1590,000000	91,780646
1589,000000	91,766128
1588,000000	91,771705
1587,000000	91,785933
1586,000000	91,772141
1585,000000	91,774216
1584,000000	91,775256
1583,000000	91,762469
1582,000000	91,689344
1581,000000	91,477477
1580,000000	91,195999
1579,000000	91,070726
1578,000000	91,081391
1577,000000	91,086617
1576,000000	91,143516
1575,000000	91,360881
1574,000000	91,558412
1573,000000	91,535177
1572,000000	91,536905
1571,000000	91,536006
1570,000000	91,448033
1569,000000	91,420341
1568,000000	91,547588
1567,000000	91,537872
1566,000000	91,435038
1565,000000	91,313015
1564,000000	91,417790
1563,000000	91,537951
1562,000000	91,429211
1561,000000	91,315355
1560,000000	91,419532
1559,000000	91,541279
1558,000000	91,538516
1557,000000	91,436445
1556,000000	91,303566
1555,000000	91,294970
1554,000000	91,420122
1553,000000	91,547344
1552,000000	91,533741
1551,000000	91,537166
1550,000000	91,432226
1549,000000	91,310390
1548,000000	91,324494
1547,000000	91,443638
1546,000000	91,539186
1545,000000	91,534929
1544,000000	91,534431
1543,000000	91,527176
1542,000000	91,542300
1541,000000	91,555881
1540,000000	91,551480
1539,000000	91,418719
1538,000000	91,301206
1537,000000	91,313187
1536,000000	91,313983
1535,000000	91,438389
1534,000000	91,553713
1533,000000	91,552125
1532,000000	91,543947
1531,000000	91,530166
1530,000000	91,519578
1529,000000	91,510705
1528,000000	91,508788
1527,000000	91,515410
1526,000000	91,391298
1525,000000	91,298043
1524,000000	91,432122
1523,000000	91,524442
1522,000000	91,509527
1521,000000	91,500288
1520,000000	91,505381
1519,000000	91,509119
1518,000000	91,398824
1517,000000	91,305817
1516,000000	91,438495
1515,000000	91,531360
1514,000000	91,527731
1513,000000	91,529633
1512,000000	91,397470
1511,000000	91,299648
1510,000000	91,443981
1509,000000	91,533698
1508,000000	91,548246
1507,000000	91,394902
1506,000000	91,310772
1505,000000	91,454252
1504,000000	91,531693
1503,000000	91,534850
1502,000000	91,528865
1501,000000	91,389068
1500,000000	91,461547
1499,000000	91,541904
1498,000000	91,536885
1497,000000	91,535483
1496,000000	91,398287
1495,000000	91,329585
1494,000000	91,477968
1493,000000	91,552447
1492,000000	91,548415
1491,000000	91,542190
1490,000000	91,549989
1489,000000	91,546989
1488,000000	91,538548
1487,000000	91,394929
1486,000000	91,342695
1485,000000	91,355876
1484,000000	91,361675
1483,000000	91,505761
1482,000000	91,561182
1481,000000	91,529203
1480,000000	91,537326
1479,000000	91,540939
1478,000000	91,541330
1477,000000	91,537327
1476,000000	91,532545
1475,000000	91,521810
1474,000000	91,542715
1473,000000	91,524149
1472,000000	91,532182
1471,000000	91,520072
1470,000000	91,506974
1469,000000	91,496722
1468,000000	91,511552
1467,000000	91,531245
1466,000000	91,391598
1465,000000	91,363068
1464,000000	91,518469
1463,000000	91,557809
1462,000000	91,549701
1461,000000	91,554328
1460,000000	91,543592
1459,000000	91,406739
1458,000000	91,541617
1457,000000	91,571550
1456,000000	91,564681
1455,000000	91,573798
1454,000000	91,569169
1453,000000	91,564138
1452,000000	91,567505
1451,000000	91,420986
1450,000000	91,372259
1449,000000	91,379221
1448,000000	91,543574
1447,000000	91,555910
1446,000000	91,551083
1445,000000	91,539668
1444,000000	91,556709
1443,000000	91,554983
1442,000000	91,572666
1441,000000	91,575191
1440,000000	91,574914
1439,000000	91,545278
1438,000000	91,564798
1437,000000	91,559209
1436,000000	91,565995
1435,000000	91,576118
1434,000000	91,561632
1433,000000	91,557228
1432,000000	91,564325
1431,000000	91,561277
1430,000000	91,565543
1429,000000	91,545371
1428,000000	91,550882
1427,000000	91,516698
1426,000000	91,528580
1425,000000	91,552228
1424,000000	91,568097
1423,000000	91,554170
1422,000000	91,548005
1421,000000	91,583555
1420,000000	91,552888
1419,000000	91,402176
1418,000000	91,519919
1417,000000	91,539020
1416,000000	91,384975
1415,000000	91,542630
1414,000000	91,553362
1413,000000	91,539561
1412,000000	91,533575
1411,000000	91,374084
1410,000000	91,374716
1409,000000	91,363424
1408,000000	91,484349
1407,000000	91,728738
1406,000000	91,535048
1405,000000	91,518874
1404,000000	91,493626
1403,000000	91,286182
1402,000000	91,262280
1401,000000	91,249851
1400,000000	91,480463
1399,000000	91,487013
1398,000000	91,498059
1397,000000	91,494487
1396,000000	91,520963
1395,000000	91,510625
1394,000000	91,533992
1393,000000	91,506404
1392,000000	91,476598
1391,000000	91,492033
1390,000000	91,510522
1389,000000	91,490781
1388,000000	91,513149
1387,000000	91,480943
1386,000000	91,502536
1385,000000	91,475177
1384,000000	91,473030
1383,000000	91,469800
1382,000000	91,492724
1381,000000	91,459885
1380,000000	91,476603
1379,000000	91,500963
1378,000000	91,500905
1377,000000	91,333223
1376,000000	91,356940
1375,000000	91,492982
1374,000000	91,311318
1373,000000	91,285130
1372,000000	91,292715
1371,000000	91,286248
1370,000000	91,278685
1369,000000	91,255204
1368,000000	91,237133
1367,000000	91,233483
1366,000000	91,237727
1365,000000	91,217551
1364,000000	91,208013
1363,000000	91,185084
1362,000000	91,219895
1361,000000	91,436797
1360,000000	91,439258
1359,000000	91,430669
1358,000000	91,419654
1357,000000	91,382512
1356,000000	91,190170
1355,000000	91,216739
1354,000000	91,431901
1353,000000	91,458916
1352,000000	91,419057
1351,000000	91,289333
1350,000000	91,468982
1349,000000	91,479458
1348,000000	91,500973
1347,000000	91,505285
1346,000000	91,517883
1345,000000	91,513043
1344,000000	91,537552
1343,000000	91,509108
1342,000000	91,411491
1341,000000	91,570041
1340,000000	91,699601
1339,000000	91,553893
1338,000000	91,475615
1337,000000	91,592756
1336,000000	91,600324
1335,000000	91,589462
1334,000000	91,587206
1333,000000	91,578653
1332,000000	91,593225
1331,000000	91,584907
1330,000000	91,594903
1329,000000	91,611877
1328,000000	91,599520
1327,000000	91,578023
1326,000000	91,596634
1325,000000	91,609259
1324,000000	91,597377
1323,000000	91,585192
1322,000000	91,575445
1321,000000	91,573161
1320,000000	91,599326
1319,000000	91,598927
1318,000000	91,546248
1317,000000	91,484456
1316,000000	91,553985
1315,000000	91,564312
1314,000000	91,571817
1313,000000	91,557403
1312,000000	91,560826
1311,000000	91,573085
1310,000000	91,581747
1309,000000	91,555859
1308,000000	91,473029
1307,000000	91,497943
1306,000000	91,562387
1305,000000	91,555285
1304,000000	91,562890
1303,000000	91,549850
1302,000000	91,572513
1301,000000	91,563775
1300,000000	91,562832
1299,000000	91,548406
1298,000000	91,544778
1297,000000	91,553535
1296,000000	91,567088
1295,000000	91,575208
1294,000000	91,559643
1293,000000	91,566381
1292,000000	91,571155
1291,000000	91,574533
1290,000000	91,582256
1289,000000	91,575829
1288,000000	91,575934
1287,000000	91,569490
1286,000000	91,578190
1285,000000	91,570037
1284,000000	91,559621
1283,000000	91,558436
1282,000000	91,516983
1281,000000	91,484895
1280,000000	91,552475
1279,000000	91,558990
1278,000000	91,559739
1277,000000	91,540258
1276,000000	91,542889
1275,000000	91,550763
1274,000000	91,547397
1273,000000	91,544903
1272,000000	91,563654
1271,000000	91,568090
1270,000000	91,557671
1269,000000	91,542663
1268,000000	91,506164
1267,000000	91,494650
1266,000000	91,546858
1265,000000	91,538684
1264,000000	91,535010
1263,000000	91,534389
1262,000000	91,551145
1261,000000	91,546671
1260,000000	91,544278
1259,000000	91,554723
1258,000000	91,559268
1257,000000	91,559934
1256,000000	91,559544
1255,000000	91,547820
1254,000000	91,534090
1253,000000	91,519092
1252,000000	91,526834
1251,000000	91,494253
1250,000000	91,483284
1249,000000	91,551014
1248,000000	91,568518
1247,000000	91,562739
1246,000000	91,562078
1245,000000	91,556400
1244,000000	91,487422
1243,000000	91,461392
1242,000000	91,515605
1241,000000	91,548206
1240,000000	91,567183
1239,000000	91,570729
1238,000000	91,559609
1237,000000	91,543956
1236,000000	91,544212
1235,000000	91,559451
1234,000000	91,557538
1233,000000	91,544152
1232,000000	91,539272
1231,000000	91,545402
1230,000000	91,552120
1229,000000	91,552529
1228,000000	91,553691
1227,000000	91,540247
1226,000000	91,527829
1225,000000	91,540114
1224,000000	91,545961
1223,000000	91,548726
1222,000000	91,562710
1221,000000	91,549765
1220,000000	91,517819
1219,000000	91,517025
1218,000000	91,513108
1217,000000	91,508512
1216,000000	91,518914
1215,000000	91,521020
1214,000000	91,521635
1213,000000	91,541138
1212,000000	91,545855
1211,000000	91,539082
1210,000000	91,536200
1209,000000	91,541659
1208,000000	91,532617
1207,000000	91,448668
1206,000000	91,462008
1205,000000	91,515581
1204,000000	91,525770
1203,000000	91,535332
1202,000000	91,535831
1201,000000	91,539166
1200,000000	91,538188
1199,000000	91,540196
1198,000000	91,539829
1197,000000	91,548219
1196,000000	91,561715
1195,000000	91,548208
1194,000000	91,542778
1193,000000	91,541966
1192,000000	91,525354
1191,000000	91,542734
1190,000000	91,534316
1189,000000	91,521049
1188,000000	91,520101
1187,000000	91,530886
1186,000000	91,525476
1185,000000	91,536186
1184,000000	91,527545
1183,000000	91,512759
1182,000000	91,528356
1181,000000	91,550548
1180,000000	91,547578
1179,000000	91,549848
1178,000000	91,547901
1177,000000	91,550932
1176,000000	91,546551
1175,000000	91,543821
1174,000000	91,541520
1173,000000	91,530341
1172,000000	91,540516
1171,000000	91,554114
1170,000000	91,528905
1169,000000	91,543040
1168,000000	91,518891
1167,000000	91,509439
1166,000000	91,507136
1165,000000	91,519287
1164,000000	91,519307
1163,000000	91,524325
1162,000000	91,527418
1161,000000	91,533604
1160,000000	91,521295
1159,000000	91,504701
1158,000000	91,421523
1157,000000	91,455706
1156,000000	91,491111
1155,000000	91,504736
1154,000000	91,488872
1153,000000	91,500283
1152,000000	91,501489
1151,000000	91,490746
1150,000000	91,484914
1149,000000	91,487301
1148,000000	91,428050
1147,000000	91,508990
1146,000000	91,498204
1145,000000	91,509341
1144,000000	91,515346
1143,000000	91,537308
1142,000000	91,534947
1141,000000	91,538220
1140,000000	91,521582
1139,000000	91,507463
1138,000000	91,476774
1137,000000	91,497161
1136,000000	91,425011
1135,000000	91,492057
1134,000000	91,507089
1133,000000	91,518749
1132,000000	91,489095
1131,000000	91,500443
1130,000000	91,504080
1129,000000	91,501749
1128,000000	91,461590
1127,000000	91,391685
1126,000000	91,466000
1125,000000	91,504962
1124,000000	91,520698
1123,000000	91,491959
1122,000000	91,469304
1121,000000	91,453132
1120,000000	91,473891
1119,000000	91,493663
1118,000000	91,480571
1117,000000	91,486889
1116,000000	91,500250
1115,000000	91,476174
1114,000000	91,486405
1113,000000	91,483503
1112,000000	91,497188
1111,000000	91,520230
1110,000000	91,510028
1109,000000	91,510649
1108,000000	91,521761
1107,000000	91,509283
1106,000000	91,466332
1105,000000	91,481487
1104,000000	91,501741
1103,000000	91,514132
1102,000000	91,486380
1101,000000	91,465522
1100,000000	91,440667
1099,000000	91,473432
1098,000000	91,477845
1097,000000	91,480483
1096,000000	91,385686
1095,000000	91,491002
1094,000000	91,480818
1093,000000	91,498810
1092,000000	91,474915
1091,000000	91,471837
1090,000000	91,463087
1089,000000	91,396865
1088,000000	91,487921
1087,000000	91,424103
1086,000000	91,445522
1085,000000	91,439932
1084,000000	91,443418
1083,000000	91,459271
1082,000000	91,344721
1081,000000	91,443446
1080,000000	91,443763
1079,000000	91,478237
1078,000000	91,467346
1077,000000	91,442901
1076,000000	91,452384
1075,000000	91,323862
1074,000000	91,449881
1073,000000	91,445001
1072,000000	91,459065
1071,000000	91,452513
1070,000000	91,432985
1069,000000	91,424157
1068,000000	91,307534
1067,000000	91,416143
1066,000000	91,428809
1065,000000	91,437194
1064,000000	91,433138
1063,000000	91,457844
1062,000000	91,423080
1061,000000	91,322223
1060,000000	91,437597
1059,000000	91,462836
1058,000000	91,437756
1057,000000	91,460239
1056,000000	91,431979
1055,000000	91,326758
1054,000000	91,440521
1053,000000	91,429094
1052,000000	91,434527
1051,000000	91,412573
1050,000000	91,305953
1049,000000	91,426419
1048,000000	91,429247
1047,000000	91,420836
1046,000000	91,294792
1045,000000	91,400486
1044,000000	91,396995
1043,000000	91,385038
1042,000000	91,380426
1041,000000	91,285011
1040,000000	91,376859
1039,000000	91,385931
1038,000000	91,355854
1037,000000	91,272563
1036,000000	91,390254
1035,000000	91,401085
1034,000000	91,369105
1033,000000	91,245480
1032,000000	91,396715
1031,000000	91,406905
1030,000000	91,410006
1029,000000	91,386359
1028,000000	91,375696
1027,000000	91,355881
1026,000000	91,259341
1025,000000	91,386448
1024,000000	91,387175
1023,000000	91,348806
1022,000000	91,245967
1021,000000	91,331290
1020,000000	91,221599
1019,000000	91,363508
1018,000000	91,361706
1017,000000	91,321311
1016,000000	91,213545
1015,000000	91,359374
1014,000000	91,310924
1013,000000	91,212922
1012,000000	91,300989
1011,000000	91,218024
1010,000000	91,354613
1009,000000	91,354986
1008,000000	91,303717
1007,000000	91,145373
1006,000000	91,173395
1005,000000	91,325439
1004,000000	91,319420
1003,000000	91,258025
1002,000000	91,128528
1001,000000	91,175364
1000,000000	91,308625
999,000000	91,297609
998,000000	91,247062
997,000000	91,118462
996,000000	91,172922
995,000000	91,335872
994,000000	91,291730
993,000000	91,155512
992,000000	91,206615
991,000000	91,343986
990,000000	91,282610
989,000000	91,161231
988,000000	91,200495
987,000000	91,326434
986,000000	91,268201
985,000000	91,158069
984,000000	91,180920
983,000000	91,274789
982,000000	91,338278
981,000000	91,234157
980,000000	91,227831
979,000000	91,347613
978,000000	91,445080
977,000000	91,508097
976,000000	91,523413
975,000000	91,510511
974,000000	91,497713
973,000000	91,498937
972,000000	91,493632
971,000000	91,494023
970,000000	91,491947
969,000000	91,485038
968,000000	91,496442
967,000000	91,480938
966,000000	91,473511
965,000000	91,482607
964,000000	91,483609
963,000000	91,484637
962,000000	91,488826
961,000000	91,484328
960,000000	91,484242
959,000000	91,495604
958,000000	91,501284
957,000000	91,495293
956,000000	91,471170
955,000000	91,471553
954,000000	91,484954
953,000000	91,481508
952,000000	91,488061
951,000000	91,489402
950,000000	91,482941
949,000000	91,473740
948,000000	91,456674
947,000000	91,463880
946,000000	91,469856
945,000000	91,473101
944,000000	91,474233
943,000000	91,467990
942,000000	91,464256
941,000000	91,476829
940,000000	91,489973
939,000000	91,490928
938,000000	91,469373
937,000000	91,480266
936,000000	91,481909
935,000000	91,498096
934,000000	91,488863
933,000000	91,472568
932,000000	91,485384
931,000000	91,481464
930,000000	91,487962
929,000000	91,480478
928,000000	91,480910
927,000000	91,482783
926,000000	91,497821
925,000000	91,517572
924,000000	91,515058
923,000000	91,513035
922,000000	91,510631
921,000000	91,499339
920,000000	91,487965
919,000000	91,496010
918,000000	91,484686
917,000000	91,469795
916,000000	91,494812
915,000000	91,486106
914,000000	91,453669
913,000000	91,463795
912,000000	91,469962
911,000000	91,458742
910,000000	91,442186
909,000000	91,447753
908,000000	91,485306
907,000000	91,477617
906,000000	91,450637
905,000000	91,439556
904,000000	91,446523
903,000000	91,473312
902,000000	91,467340
901,000000	91,436687
900,000000	91,452959
899,000000	91,436400
898,000000	91,399528
897,000000	91,429227
896,000000	91,466039
895,000000	91,443013
894,000000	91,437238
893,000000	91,444581
892,000000	91,476565
891,000000	91,438628
890,000000	91,438994
889,000000	91,431964
888,000000	91,439494
887,000000	91,436755
886,000000	91,437033
885,000000	91,431919
884,000000	91,404358
883,000000	91,397196
882,000000	91,486238
881,000000	91,458323
880,000000	91,420773
879,000000	91,469037
878,000000	91,453409
877,000000	91,376223
876,000000	91,457278
875,000000	91,453612
874,000000	91,447762
873,000000	91,381163
872,000000	91,423712
871,000000	91,424404
870,000000	91,396807
869,000000	91,485070
868,000000	91,537900
867,000000	91,441438
866,000000	91,415867
865,000000	91,429114
864,000000	91,470620
863,000000	91,437414
862,000000	91,392983
861,000000	92,142325
860,000000	91,625905
859,000000	91,153899
858,000000	91,758334
857,000000	91,900085
856,000000	91,603259
855,000000	90,963611
854,000000	91,223819
853,000000	91,928922
852,000000	91,397488
851,000000	91,862153
850,000000	91,648212
849,000000	91,566205
848,000000	91,751222
847,000000	91,341905
846,000000	91,375249
845,000000	91,495588
844,000000	91,441275
843,000000	91,133384
842,000000	91,101949
841,000000	91,324516
840,000000	91,600421
839,000000	91,388421
838,000000	91,226764
837,000000	91,332785
836,000000	91,389151
835,000000	91,436229
834,000000	91,335199
833,000000	91,158389
832,000000	91,338883
831,000000	91,391093
830,000000	91,438081
829,000000	91,305561
828,000000	91,486328
827,000000	91,317381
826,000000	91,385527
825,000000	91,463163
824,000000	91,287512
823,000000	91,316123
822,000000	91,467164
821,000000	91,540656
820,000000	91,500035
819,000000	91,386170
818,000000	91,196725
817,000000	91,198670
816,000000	91,291330
815,000000	91,636504
814,000000	91,630121
813,000000	91,592149
812,000000	91,345713
811,000000	91,475693
810,000000	91,475046
809,000000	91,483103
808,000000	91,283253
807,000000	91,334310
806,000000	91,316857
805,000000	91,521168
804,000000	91,275024
803,000000	91,413171
802,000000	91,335259
801,000000	91,326136
800,000000	91,450504
799,000000	91,415574
798,000000	91,494151
797,000000	91,513269
796,000000	91,386345
795,000000	91,322551
794,000000	91,407892
793,000000	91,490911
792,000000	91,464777
791,000000	91,476305
790,000000	91,336589
789,000000	91,248232
788,000000	91,362605
787,000000	91,399119
786,000000	91,244283
785,000000	91,394840
784,000000	91,389733
783,000000	91,336998
782,000000	91,507293
781,000000	91,255115
780,000000	91,446446
779,000000	91,346634
778,000000	91,450007
777,000000	91,230182
776,000000	91,472323
775,000000	91,322967
774,000000	91,136825
773,000000	91,501500
772,000000	91,298828
771,000000	91,379307
770,000000	91,383172
769,000000	91,466442
768,000000	91,322112
767,000000	91,314064
766,000000	91,457524
765,000000	91,444443
764,000000	91,356290
763,000000	91,458384
762,000000	91,396188
761,000000	91,241248
760,000000	91,183661
759,000000	91,298374
758,000000	91,362964
757,000000	91,421573
756,000000	91,469454
755,000000	91,443794
754,000000	91,243928
753,000000	91,327148
752,000000	91,389128
751,000000	91,358271
750,000000	91,398081
749,000000	91,333576
748,000000	91,292996
747,000000	91,334643
746,000000	91,476026
745,000000	91,415565
744,000000	91,372098
743,000000	91,335035
742,000000	91,337484
741,000000	91,384201
740,000000	91,400682
739,000000	91,494029
738,000000	91,421393
737,000000	91,358822
736,000000	91,213910
735,000000	91,425623
734,000000	91,316157
733,000000	91,482122
732,000000	91,394876
731,000000	91,260603
730,000000	91,309808
729,000000	91,397208
728,000000	91,292427
727,000000	91,437816
726,000000	91,510263
725,000000	91,409749
724,000000	91,333870
723,000000	91,381277
722,000000	91,500502
721,000000	91,496756
720,000000	91,419564
719,000000	91,495116
718,000000	91,410431
717,000000	91,436517
716,000000	91,390632
715,000000	91,318826
714,000000	91,374576
713,000000	91,368765
712,000000	91,368069
711,000000	91,317556
710,000000	91,271461
709,000000	91,333791
708,000000	91,385711
707,000000	91,407687
706,000000	91,426366
705,000000	91,401639
704,000000	91,321188
703,000000	91,316287
702,000000	91,327818
701,000000	91,325533
700,000000	91,330503
699,000000	91,424449
698,000000	91,391144
697,000000	91,367245
696,000000	91,328913
695,000000	91,362053
694,000000	91,331771
693,000000	91,376276
692,000000	91,347333
691,000000	91,404877
690,000000	91,393675
689,000000	91,326060
688,000000	91,301693
687,000000	91,291805
686,000000	91,270095
685,000000	91,255516
684,000000	91,341728
683,000000	91,303598
682,000000	91,319221
681,000000	91,391956
680,000000	91,392705
679,000000	91,428282
678,000000	91,378850
677,000000	91,366438
676,000000	91,424061
675,000000	91,358744
674,000000	91,347930
673,000000	91,330579
672,000000	91,306203
671,000000	91,328008
670,000000	91,344690
669,000000	91,318543
668,000000	91,251076
667,000000	91,283170
666,000000	91,368599
665,000000	91,351982
664,000000	91,324269
663,000000	91,306906
662,000000	91,298947
661,000000	91,350914
660,000000	91,370710
659,000000	91,351008
658,000000	91,335636
657,000000	91,279340
656,000000	91,248955
655,000000	91,326015
654,000000	91,328695
653,000000	91,289894
652,000000	91,304378
651,000000	91,334032
650,000000	91,368431
649,000000	91,326865
648,000000	91,310742
647,000000	91,287053
646,000000	91,302450
645,000000	91,330155
644,000000	91,282019
643,000000	91,267102
642,000000	91,295060
641,000000	91,356658
640,000000	91,318400
639,000000	91,309231
638,000000	91,389227
637,000000	91,365194
636,000000	91,336507
635,000000	91,350342
634,000000	91,339087
633,000000	91,338503
632,000000	91,331005
631,000000	91,264021
630,000000	91,220025
629,000000	91,240361
628,000000	91,270983
627,000000	91,328889
626,000000	91,376026
625,000000	91,319535
624,000000	91,300762
623,000000	91,355062
622,000000	91,365405
621,000000	91,347849
620,000000	91,311519
619,000000	91,297447
618,000000	91,284652
617,000000	91,289522
616,000000	91,268037
615,000000	91,258306
614,000000	91,306487
613,000000	91,312144
612,000000	91,323713
611,000000	91,301455
610,000000	91,296906
609,000000	91,273572
608,000000	91,229888
607,000000	91,211323
606,000000	91,246318
605,000000	91,313368
604,000000	91,277427
603,000000	91,245599
602,000000	91,285497
601,000000	91,330305
600,000000	91,280704
599,000000	91,274434
598,000000	91,343742
597,000000	91,298917
596,000000	91,276874
595,000000	91,231029
594,000000	91,249381
593,000000	91,279042
592,000000	91,248897
591,000000	91,261058
590,000000	91,202014
589,000000	91,200903
588,000000	91,279401
587,000000	91,278111
586,000000	91,259318
585,000000	91,223373
584,000000	91,195675
583,000000	91,171917
582,000000	91,212226
581,000000	91,219724
580,000000	91,202974
579,000000	91,173215
578,000000	91,214896
577,000000	91,240894
576,000000	91,156920
575,000000	91,188574
574,000000	91,196099
573,000000	91,187758
572,000000	91,270950
571,000000	91,205138
570,000000	91,239982
569,000000	91,265702
568,000000	91,268765
567,000000	91,240303
566,000000	91,189904
565,000000	91,203629
564,000000	91,165499
563,000000	91,204627
562,000000	91,248752
561,000000	91,220003
560,000000	91,242546
559,000000	91,184103
558,000000	91,205699
557,000000	91,225402
556,000000	91,242063
555,000000	91,230588
554,000000	91,248482
553,000000	91,212629
552,000000	91,198665
551,000000	91,257401
550,000000	91,291257
549,000000	91,267985
548,000000	91,231202
547,000000	91,208669
546,000000	91,188254
545,000000	91,232270
544,000000	91,205394
543,000000	91,201461
542,000000	91,266734
541,000000	91,212803
540,000000	91,203837
539,000000	91,147876
538,000000	91,165061
537,000000	91,187291
536,000000	91,251878
535,000000	91,243920
534,000000	91,258278
533,000000	91,224590
532,000000	91,167901
531,000000	91,188105
530,000000	91,216487
529,000000	91,200508
528,000000	91,135803
527,000000	91,142412
526,000000	91,134125
525,000000	91,223313
524,000000	91,244622
523,000000	91,244873
522,000000	91,135937
521,000000	91,202219
520,000000	91,167607
519,000000	91,119035
518,000000	91,142911
517,000000	91,198959
516,000000	91,184571
515,000000	91,147984
514,000000	91,138479
513,000000	91,134727
512,000000	91,165807
511,000000	91,148371
510,000000	91,151859
509,000000	91,176070
508,000000	91,166550
507,000000	91,156113
506,000000	91,215972
505,000000	91,202319
504,000000	91,134977
503,000000	91,188107
502,000000	91,194499
501,000000	91,144765
500,000000	91,189124
499,000000	91,196731
498,000000	91,105493
497,000000	91,089528
496,000000	91,117689
495,000000	91,067430
494,000000	91,137815
493,000000	91,138072
492,000000	91,165092
491,000000	91,104278
490,000000	91,205859
489,000000	91,203744
488,000000	91,070836
487,000000	91,115556
486,000000	91,110016
485,000000	91,123523
484,000000	91,104172
483,000000	91,144312
482,000000	91,091731
481,000000	91,151849
480,000000	91,106516
479,000000	91,135294
478,000000	91,079367
477,000000	91,133480
476,000000	91,060638
475,000000	91,106190
474,000000	91,139274
473,000000	91,098534
472,000000	91,165203
471,000000	91,126813
470,000000	91,191344
469,000000	91,141513
468,000000	91,135204
467,000000	91,137849
466,000000	91,026271
465,000000	91,027131
464,000000	91,088205
463,000000	91,135551
462,000000	91,124092
461,000000	91,030276
460,000000	91,015035
459,000000	91,038091
458,000000	91,042176
457,000000	91,084945
456,000000	91,030951
455,000000	91,028972
454,000000	91,088059
453,000000	91,079956
452,000000	91,072979
451,000000	91,064411
450,000000	91,028849
449,000000	91,094812
448,000000	91,116545
447,000000	91,105218
446,000000	91,037579
445,000000	90,969307
444,000000	91,039592
443,000000	90,958888
442,000000	91,047800
441,000000	91,025612
440,000000	91,048176
439,000000	91,051893
438,000000	91,098273
437,000000	90,937827
436,000000	91,001700
435,000000	91,043311
434,000000	91,036489
433,000000	90,996400
432,000000	91,100546
431,000000	91,051744
430,000000	91,078413
429,000000	91,184014
428,000000	91,067656
427,000000	91,028553
426,000000	91,063829
425,000000	91,001479
424,000000	90,926067
423,000000	90,961411
422,000000	91,114335
421,000000	91,090632
420,000000	90,950230
419,000000	90,988527
418,000000	91,060611
417,000000	91,087392
416,000000	91,035010
415,000000	90,983917
414,000000	91,012447
413,000000	90,951067
412,000000	91,026989
411,000000	90,959974
410,000000	90,880167
409,000000	90,977538
408,000000	90,930254
407,000000	90,896872
406,000000	90,950784
405,000000	90,978578
404,000000	90,887897
403,000000	90,858034
402,000000	90,941550
401,000000	90,959472
400,000000	91,032927
399,000000	90,975640
398,000000	90,956456
397,000000	90,852278
396,000000	90,808851
395,000000	90,846165
394,000000	90,871631
393,000000	90,881681
392,000000	90,878086
391,000000	90,895060
390,000000	90,890677
389,000000	90,862669
388,000000	90,878628
387,000000	90,981599
386,000000	91,000671
385,000000	91,041380
384,000000	90,987298
383,000000	90,887049
382,000000	90,980065
381,000000	90,884001
380,000000	90,811085
379,000000	90,651960
378,000000	90,775842
377,000000	91,484118
376,000000	91,471547
375,000000	90,916328
374,000000	90,615374
373,000000	90,697237
372,000000	90,966376
371,000000	90,916238
370,000000	91,112213
369,000000	90,750873
368,000000	90,571489
367,000000	90,933776
366,000000	90,878483
365,000000	90,887581
364,000000	90,700917
363,000000	90,628978
362,000000	90,584695
361,000000	90,742134
360,000000	91,118420
359,000000	91,081156
358,000000	91,055385
357,000000	91,037106
356,000000	90,727340
355,000000	90,435065
354,000000	90,581527
353,000000	90,999951
352,000000	90,838281
351,000000	90,735199
350,000000	90,804055
349,000000	90,997241
348,000000	91,086049
347,000000	90,663764
346,000000	90,633417
345,000000	90,371498
344,000000	89,985211
343,000000	90,478974
342,000000	90,515323
341,000000	90,260532
340,000000	90,527906
339,000000	90,587352
338,000000	90,763744
337,000000	90,909705
336,000000	90,519447
335,000000	90,358373
334,000000	90,622769
333,000000	90,294533
332,000000	90,131791
331,000000	90,601905
330,000000	90,926649
329,000000	91,018168
328,000000	90,993440
327,000000	91,280349
326,000000	90,950356
325,000000	90,084432
324,000000	89,869236
323,000000	90,329896
322,000000	91,015024
321,000000	90,708256
320,000000	90,521383
319,000000	90,690284
318,000000	90,357733
317,000000	90,318379
316,000000	90,443990
315,000000	90,548059
314,000000	90,574021
313,000000	90,615471
312,000000	90,731080
311,000000	90,579283
310,000000	90,492548
309,000000	90,467090
308,000000	90,391231
307,000000	90,568368
306,000000	90,607067
305,000000	90,345946
304,000000	90,321442
303,000000	90,309256
302,000000	90,362566
301,000000	90,332642
300,000000	90,266235
299,000000	90,303167
298,000000	90,390432
297,000000	90,373340
296,000000	90,315669
295,000000	90,156084
294,000000	90,384534
293,000000	90,443357
292,000000	90,418848
291,000000	90,313511
290,000000	90,342072
289,000000	90,356721
288,000000	90,332755
287,000000	90,206783
286,000000	90,216042
285,000000	90,222876
284,000000	90,179848
283,000000	90,139283
282,000000	90,152924
281,000000	90,180439
280,000000	90,284273
279,000000	90,177225
278,000000	90,045499
277,000000	89,998088
276,000000	90,033005
275,000000	90,076044
274,000000	90,125807
273,000000	90,069740
272,000000	89,955956
271,000000	90,018011
270,000000	90,019331
269,000000	89,869414
268,000000	89,997041
267,000000	89,974106
266,000000	89,854358
265,000000	89,865644
264,000000	89,836743
263,000000	89,933149
262,000000	89,883576
261,000000	89,763213
260,000000	89,739957
259,000000	89,869945
258,000000	89,664861
257,000000	89,543738
256,000000	89,530795
255,000000	89,606886
254,000000	89,670591
253,000000	89,603393
252,000000	89,630488
251,000000	89,612187
250,000000	89,493030
249,000000	89,662803
248,000000	89,656916
247,000000	89,555939
246,000000	89,498617
245,000000	89,575948
244,000000	89,612341
243,000000	89,512523
242,000000	89,276825
241,000000	89,341139
240,000000	89,400156
239,000000	89,386810
238,000000	89,303931
237,000000	89,257398
236,000000	89,259804
235,000000	89,354676
234,000000	89,152628
233,000000	88,997345
232,000000	88,969734
231,000000	89,121962
230,000000	88,856557
229,000000	89,059433
228,000000	89,018303
227,000000	88,969880
226,000000	88,889206
225,000000	88,900520
224,000000	89,200126
223,000000	89,134214
222,000000	88,970929
221,000000	88,773127
220,000000	88,756433
219,000000	88,638510
218,000000	88,570532
217,000000	88,638226
216,000000	88,470536
215,000000	88,679882
214,000000	88,702593
213,000000	88,484602
212,000000	88,700825
211,000000	88,348275
210,000000	88,271127
209,000000	88,311926
208,000000	88,071919
207,000000	87,953893
206,000000	87,637644
205,000000	87,510208
204,000000	87,580588
203,000000	87,558396
202,000000	87,304721
201,000000	87,456585
200,000000	87,331171
