PE UV       SUBTECH     SPECTRUM    ASCII       PEDS        4.00        
   -1
branco2.Sample.asc
22/03/28
14:47:44.00
22/03/28
14:47:44.00
Administrator

200,000000
1
Lambda 1050
1050L1808311
PerkinElmer UV WinLab 6.4.0.973 / 2.02.11 Lambda 900 UV/VIS/NIR, May 23 2018 11:23:04

0
0
3350/servo 860,8/2
0
0
UV/VIS
1
1
1
CommonBeamDepol,RBeamAtt,SBeamAtt,60mm sphere
0
0
0
0
Program
Program
3350/servo 860,8/2
3350/0,2 860,8/0,2
3350/0,2 860,8/0,2
0
1.00
 
 
 
0
 
860,8
319,2
860,8
Front
100
on
S:100 R:100
 
0
0
0
 
0
 
 
 
0
 
 
0
0
0
0
0
 
 
 
 
0
0


0
0
#HDR
-1
-1
#GR
nm
%T
1.0
0.0
2000,000000
-1,000000
1801
8
386,320210
50,724293
#DATA
2000,000000	82,038668
1999,000000	81,999704
1998,000000	82,032794
1997,000000	81,958146
1996,000000	81,989937
1995,000000	81,915746
1994,000000	81,915102
1993,000000	81,873145
1992,000000	81,913486
1991,000000	81,892953
1990,000000	81,911612
1989,000000	81,821559
1988,000000	81,897474
1987,000000	81,812449
1986,000000	81,788135
1985,000000	81,779465
1984,000000	81,794936
1983,000000	81,775513
1982,000000	81,767742
1981,000000	81,722708
1980,000000	81,768484
1979,000000	81,740545
1978,000000	81,750845
1977,000000	81,732356
1976,000000	81,716686
1975,000000	81,686385
1974,000000	81,678806
1973,000000	81,663121
1972,000000	81,722714
1971,000000	81,662321
1970,000000	81,637198
1969,000000	81,652573
1968,000000	81,625570
1967,000000	81,620072
1966,000000	81,614836
1965,000000	81,572294
1964,000000	81,607000
1963,000000	81,630802
1962,000000	81,585513
1961,000000	81,610198
1960,000000	81,759240
1959,000000	81,750002
1958,000000	81,774675
1957,000000	81,683066
1956,000000	81,755554
1955,000000	81,749264
1954,000000	81,774915
1953,000000	81,709787
1952,000000	81,731429
1951,000000	81,695991
1950,000000	81,754438
1949,000000	81,717042
1948,000000	81,750519
1947,000000	81,753455
1946,000000	81,786683
1945,000000	81,682520
1944,000000	81,732405
1943,000000	81,665632
1942,000000	81,664795
1941,000000	81,638138
1940,000000	81,707547
1939,000000	81,707546
1938,000000	81,689764
1937,000000	81,610284
1936,000000	81,643125
1935,000000	81,595840
1934,000000	81,654886
1933,000000	81,631006
1932,000000	81,653264
1931,000000	81,626853
1930,000000	81,650990
1929,000000	81,576089
1928,000000	81,588249
1927,000000	81,571757
1926,000000	81,610212
1925,000000	81,598133
1924,000000	81,581391
1923,000000	81,509205
1922,000000	81,545236
1921,000000	81,541558
1920,000000	81,575449
1919,000000	81,521499
1918,000000	81,508420
1917,000000	81,496200
1916,000000	81,478561
1915,000000	81,421693
1914,000000	81,464255
1913,000000	81,422870
1912,000000	81,397591
1911,000000	81,376457
1910,000000	81,348258
1909,000000	81,324583
1908,000000	81,287164
1907,000000	81,242467
1906,000000	81,211819
1905,000000	81,188606
1904,000000	81,186309
1903,000000	81,104384
1902,000000	81,056933
1901,000000	81,002586
1900,000000	80,978510
1899,000000	80,927117
1898,000000	80,917850
1897,000000	80,876441
1896,000000	80,839727
1895,000000	80,786037
1894,000000	80,802618
1893,000000	80,764691
1892,000000	80,716065
1891,000000	80,708257
1890,000000	80,727359
1889,000000	80,725240
1888,000000	80,704117
1887,000000	80,708153
1886,000000	80,721611
1885,000000	80,684947
1884,000000	80,702764
1883,000000	80,651120
1882,000000	80,627605
1881,000000	80,615330
1880,000000	80,606278
1879,000000	80,571253
1878,000000	80,577737
1877,000000	80,540974
1876,000000	80,530138
1875,000000	80,517540
1874,000000	80,466947
1873,000000	80,390194
1872,000000	80,335029
1871,000000	80,302932
1870,000000	80,296479
1869,000000	80,261802
1868,000000	80,162806
1867,000000	80,126429
1866,000000	80,128382
1865,000000	80,125515
1864,000000	80,139398
1863,000000	80,122940
1862,000000	80,135345
1861,000000	80,137168
1860,000000	80,137729
1859,000000	80,150376
1858,000000	80,130805
1857,000000	80,093227
1856,000000	80,083758
1855,000000	80,119242
1854,000000	80,118738
1853,000000	80,084844
1852,000000	80,097743
1851,000000	80,086767
1850,000000	80,073618
1849,000000	80,065715
1848,000000	80,025116
1847,000000	80,008282
1846,000000	79,992538
1845,000000	80,001465
1844,000000	80,011005
1843,000000	79,973145
1842,000000	79,951900
1841,000000	79,963780
1840,000000	79,918160
1839,000000	79,884829
1838,000000	79,855179
1837,000000	79,828703
1836,000000	79,806145
1835,000000	79,812211
1834,000000	79,816079
1833,000000	79,806132
1832,000000	79,762266
1831,000000	79,769191
1830,000000	79,755467
1829,000000	79,737861
1828,000000	79,738882
1827,000000	79,740665
1826,000000	79,699206
1825,000000	79,687961
1824,000000	79,667311
1823,000000	79,657223
1822,000000	79,646029
1821,000000	79,625133
1820,000000	79,596302
1819,000000	79,604497
1818,000000	79,612408
1817,000000	79,603657
1816,000000	79,577800
1815,000000	79,588450
1814,000000	79,552414
1813,000000	79,569970
1812,000000	79,542116
1811,000000	79,522961
1810,000000	79,489042
1809,000000	79,504632
1808,000000	79,494523
1807,000000	79,494203
1806,000000	79,469693
1805,000000	79,458188
1804,000000	79,431902
1803,000000	79,422084
1802,000000	79,416661
1801,000000	79,438587
1800,000000	79,423604
1799,000000	79,408063
1798,000000	79,372814
1797,000000	79,368703
1796,000000	79,356652
1795,000000	79,364645
1794,000000	79,327441
1793,000000	79,337889
1792,000000	79,329003
1791,000000	79,328249
1790,000000	79,310901
1789,000000	79,304905
1788,000000	79,297605
1787,000000	79,319471
1786,000000	79,306202
1785,000000	79,316339
1784,000000	79,290471
1783,000000	79,306831
1782,000000	79,268594
1781,000000	79,245629
1780,000000	79,236108
1779,000000	79,244411
1778,000000	79,235715
1777,000000	79,240865
1776,000000	79,208480
1775,000000	79,199341
1774,000000	79,195942
1773,000000	79,212483
1772,000000	79,196610
1771,000000	79,199150
1770,000000	79,154821
1769,000000	79,179934
1768,000000	79,192862
1767,000000	79,220763
1766,000000	79,205457
1765,000000	79,205557
1764,000000	79,181007
1763,000000	79,212324
1762,000000	79,192253
1761,000000	79,196305
1760,000000	79,187351
1759,000000	79,220840
1758,000000	79,199337
1757,000000	79,207340
1756,000000	79,187385
1755,000000	79,207525
1754,000000	79,191803
1753,000000	79,195345
1752,000000	79,167594
1751,000000	79,175015
1750,000000	79,173218
1749,000000	79,200634
1748,000000	79,205086
1747,000000	79,190516
1746,000000	79,173573
1745,000000	79,200801
1744,000000	79,176071
1743,000000	79,167389
1742,000000	79,152149
1741,000000	79,166390
1740,000000	79,124715
1739,000000	79,170856
1738,000000	79,156623
1737,000000	79,193817
1736,000000	79,138078
1735,000000	79,159034
1734,000000	79,150716
1733,000000	79,152064
1732,000000	79,129591
1731,000000	79,124503
1730,000000	79,131109
1729,000000	79,168366
1728,000000	79,112895
1727,000000	79,133859
1726,000000	79,104244
1725,000000	79,125808
1724,000000	79,097971
1723,000000	79,103442
1722,000000	79,095239
1721,000000	79,096689
1720,000000	79,067793
1719,000000	79,105251
1718,000000	79,066131
1717,000000	79,075737
1716,000000	79,052740
1715,000000	79,082273
1714,000000	79,033059
1713,000000	79,057281
1712,000000	79,035963
1711,000000	79,043489
1710,000000	78,996470
1709,000000	78,989342
1708,000000	78,954589
1707,000000	78,968334
1706,000000	78,935618
1705,000000	78,877804
1704,000000	78,878661
1703,000000	78,881637
1702,000000	78,832081
1701,000000	78,826219
1700,000000	78,749212
1699,000000	78,769038
1698,000000	78,687111
1697,000000	78,751271
1696,000000	78,650516
1695,000000	78,635650
1694,000000	78,599629
1693,000000	78,627710
1692,000000	78,558100
1691,000000	78,567083
1690,000000	78,517557
1689,000000	78,518180
1688,000000	78,501473
1687,000000	78,509599
1686,000000	78,418763
1685,000000	78,456743
1684,000000	78,416467
1683,000000	78,403907
1682,000000	78,363110
1681,000000	78,396564
1680,000000	78,378874
1679,000000	78,368843
1678,000000	78,343105
1677,000000	78,381739
1676,000000	78,348249
1675,000000	78,385819
1674,000000	78,341528
1673,000000	78,351050
1672,000000	78,373706
1671,000000	78,384990
1670,000000	78,402024
1669,000000	78,440811
1668,000000	78,405010
1667,000000	78,442329
1666,000000	78,435509
1665,000000	78,472821
1664,000000	78,461932
1663,000000	78,508702
1662,000000	78,490631
1661,000000	78,504529
1660,000000	78,490908
1659,000000	78,495079
1658,000000	78,492028
1657,000000	78,525466
1656,000000	78,518577
1655,000000	78,527991
1654,000000	78,489090
1653,000000	78,510752
1652,000000	78,485369
1651,000000	78,489675
1650,000000	78,494033
1649,000000	78,488073
1648,000000	78,468116
1647,000000	78,476119
1646,000000	78,459546
1645,000000	78,455435
1644,000000	78,425716
1643,000000	78,435511
1642,000000	78,417983
1641,000000	78,422212
1640,000000	78,416047
1639,000000	78,421415
1638,000000	78,417786
1637,000000	78,396793
1636,000000	78,402022
1635,000000	78,411117
1634,000000	78,391983
1633,000000	78,404438
1632,000000	78,384257
1631,000000	78,373208
1630,000000	78,357082
1629,000000	78,373702
1628,000000	78,357239
1627,000000	78,372285
1626,000000	78,346132
1625,000000	78,360909
1624,000000	78,355442
1623,000000	78,350117
1622,000000	78,338995
1621,000000	78,339549
1620,000000	78,337829
1619,000000	78,326665
1618,000000	78,309573
1617,000000	78,300882
1616,000000	78,290899
1615,000000	78,306047
1614,000000	78,287608
1613,000000	78,285301
1612,000000	78,298301
1611,000000	78,288530
1610,000000	78,263443
1609,000000	78,265013
1608,000000	78,271759
1607,000000	78,287344
1606,000000	78,254581
1605,000000	78,245554
1604,000000	78,216925
1603,000000	78,218246
1602,000000	78,205703
1601,000000	78,229417
1600,000000	78,202044
1599,000000	78,203202
1598,000000	78,196020
1597,000000	78,200010
1596,000000	78,189811
1595,000000	78,175226
1594,000000	78,154698
1593,000000	78,151475
1592,000000	78,138057
1591,000000	78,151704
1590,000000	78,135915
1589,000000	78,123791
1588,000000	78,120839
1587,000000	78,112509
1586,000000	78,091210
1585,000000	78,089839
1584,000000	78,079477
1583,000000	78,110493
1582,000000	78,180325
1581,000000	78,267975
1580,000000	78,374405
1579,000000	78,481782
1578,000000	78,564069
1577,000000	78,621101
1576,000000	78,632941
1575,000000	78,452936
1574,000000	77,942196
1573,000000	77,414123
1572,000000	77,092385
1571,000000	76,959536
1570,000000	76,939335
1569,000000	76,901784
1568,000000	76,818345
1567,000000	76,722244
1566,000000	76,606151
1565,000000	76,490286
1564,000000	76,407959
1563,000000	76,353415
1562,000000	76,330592
1561,000000	76,432285
1560,000000	76,780424
1559,000000	77,260582
1558,000000	77,560568
1557,000000	77,645647
1556,000000	77,550509
1555,000000	77,351831
1554,000000	77,241990
1553,000000	77,227901
1552,000000	77,218460
1551,000000	77,219804
1550,000000	77,210387
1549,000000	77,117938
1548,000000	77,020460
1547,000000	77,094616
1546,000000	77,173961
1545,000000	77,162779
1544,000000	77,151890
1543,000000	77,143964
1542,000000	77,140441
1541,000000	77,120939
1540,000000	77,118560
1539,000000	77,129401
1538,000000	77,006791
1537,000000	76,896636
1536,000000	76,892865
1535,000000	76,976987
1534,000000	77,057530
1533,000000	77,048187
1532,000000	77,044170
1531,000000	77,039913
1530,000000	77,041185
1529,000000	77,031077
1528,000000	77,023497
1527,000000	77,013187
1526,000000	77,001039
1525,000000	76,888002
1524,000000	76,928145
1523,000000	77,006840
1522,000000	77,002962
1521,000000	76,995553
1520,000000	76,984379
1519,000000	76,969184
1518,000000	76,963600
1517,000000	76,848221
1516,000000	76,899963
1515,000000	76,966773
1514,000000	76,971129
1513,000000	76,953712
1512,000000	76,950059
1511,000000	76,844231
1510,000000	76,887782
1509,000000	76,945384
1508,000000	76,946150
1507,000000	76,921552
1506,000000	76,798148
1505,000000	76,846264
1504,000000	76,923537
1503,000000	76,918388
1502,000000	76,937089
1501,000000	76,946909
1500,000000	76,935163
1499,000000	76,923840
1498,000000	76,925106
1497,000000	76,926406
1496,000000	76,921173
1495,000000	76,889689
1494,000000	76,892378
1493,000000	76,883507
1492,000000	76,884659
1491,000000	76,878367
1490,000000	76,891026
1489,000000	76,873531
1488,000000	76,884226
1487,000000	76,886726
1486,000000	76,894123
1485,000000	76,772683
1484,000000	76,839861
1483,000000	76,868491
1482,000000	76,873144
1481,000000	76,865164
1480,000000	76,867735
1479,000000	76,858714
1478,000000	76,842883
1477,000000	76,862183
1476,000000	76,865125
1475,000000	76,849078
1474,000000	76,840752
1473,000000	76,829414
1472,000000	76,820099
1471,000000	76,803744
1470,000000	76,816581
1469,000000	76,780119
1468,000000	76,778717
1467,000000	76,760005
1466,000000	76,659535
1465,000000	76,729868
1464,000000	76,782308
1463,000000	76,774386
1462,000000	76,770515
1461,000000	76,766748
1460,000000	76,803801
1459,000000	76,781947
1458,000000	76,800538
1457,000000	76,774246
1456,000000	76,790321
1455,000000	76,765983
1454,000000	76,768455
1453,000000	76,751617
1452,000000	76,765800
1451,000000	76,642054
1450,000000	76,743991
1449,000000	76,747001
1448,000000	76,753570
1447,000000	76,738629
1446,000000	76,753454
1445,000000	76,741344
1444,000000	76,743671
1443,000000	76,731282
1442,000000	76,743402
1441,000000	76,712200
1440,000000	76,731079
1439,000000	76,726285
1438,000000	76,724272
1437,000000	76,707382
1436,000000	76,714017
1435,000000	76,712154
1434,000000	76,713076
1433,000000	76,697615
1432,000000	76,701148
1431,000000	76,679893
1430,000000	76,662005
1429,000000	76,649456
1428,000000	76,684044
1427,000000	76,674079
1426,000000	76,674649
1425,000000	76,654874
1424,000000	76,654885
1423,000000	76,664972
1422,000000	76,659193
1421,000000	76,661622
1420,000000	76,665512
1419,000000	76,609367
1418,000000	76,555890
1417,000000	76,596601
1416,000000	76,581592
1415,000000	76,448216
1414,000000	76,577586
1413,000000	76,564369
1412,000000	76,544933
1411,000000	76,515192
1410,000000	76,532106
1409,000000	76,381352
1408,000000	76,354038
1407,000000	76,463680
1406,000000	76,472443
1405,000000	76,242098
1404,000000	76,233270
1403,000000	76,366378
1402,000000	76,375805
1401,000000	76,317034
1400,000000	76,178612
1399,000000	76,149760
1398,000000	76,176065
1397,000000	76,164911
1396,000000	76,188158
1395,000000	76,168115
1394,000000	76,148597
1393,000000	76,116823
1392,000000	76,092795
1391,000000	76,042217
1390,000000	76,043077
1389,000000	75,990032
1388,000000	75,999715
1387,000000	75,969722
1386,000000	75,985997
1385,000000	75,938963
1384,000000	75,949649
1383,000000	75,933793
1382,000000	75,971567
1381,000000	75,913305
1380,000000	75,960648
1379,000000	75,936764
1378,000000	75,936324
1377,000000	76,095500
1376,000000	76,176558
1375,000000	76,008126
1374,000000	76,010854
1373,000000	75,952088
1372,000000	75,946757
1371,000000	75,921613
1370,000000	75,925381
1369,000000	75,918305
1368,000000	75,902925
1367,000000	75,866080
1366,000000	75,848699
1365,000000	75,830825
1364,000000	75,816441
1363,000000	75,761625
1362,000000	75,735585
1361,000000	75,674709
1360,000000	75,678787
1359,000000	75,787489
1358,000000	75,593372
1357,000000	75,581836
1356,000000	75,597836
1355,000000	75,752887
1354,000000	75,728811
1353,000000	75,542581
1352,000000	75,548311
1351,000000	75,597858
1350,000000	75,707818
1349,000000	75,603161
1348,000000	75,604168
1347,000000	75,612904
1346,000000	75,772358
1345,000000	75,752449
1344,000000	75,740202
1343,000000	75,730817
1342,000000	75,736329
1341,000000	75,724168
1340,000000	75,680592
1339,000000	75,780540
1338,000000	75,866860
1337,000000	75,746854
1336,000000	75,772784
1335,000000	75,743704
1334,000000	75,767912
1333,000000	75,758085
1332,000000	75,757353
1331,000000	75,729630
1330,000000	75,735157
1329,000000	75,717803
1328,000000	75,735306
1327,000000	75,717010
1326,000000	75,714561
1325,000000	75,700221
1324,000000	75,727368
1323,000000	75,698497
1322,000000	75,680456
1321,000000	75,651778
1320,000000	75,660035
1319,000000	75,624860
1318,000000	75,657509
1317,000000	75,679326
1316,000000	75,624043
1315,000000	75,602698
1314,000000	75,597595
1313,000000	75,579994
1312,000000	75,576327
1311,000000	75,546464
1310,000000	75,556583
1309,000000	75,550015
1308,000000	75,609312
1307,000000	75,576401
1306,000000	75,501326
1305,000000	75,485448
1304,000000	75,476875
1303,000000	75,470027
1302,000000	75,467051
1301,000000	75,451740
1300,000000	75,437853
1299,000000	75,416721
1298,000000	75,411797
1297,000000	75,395989
1296,000000	75,402007
1295,000000	75,386737
1294,000000	75,379756
1293,000000	75,370312
1292,000000	75,356445
1291,000000	75,355818
1290,000000	75,375685
1289,000000	75,393515
1288,000000	75,417295
1287,000000	75,342844
1286,000000	75,336970
1285,000000	75,336988
1284,000000	75,328788
1283,000000	75,304877
1282,000000	75,329383
1281,000000	75,346576
1280,000000	75,279699
1279,000000	75,274197
1278,000000	75,272480
1277,000000	75,268007
1276,000000	75,270479
1275,000000	75,248125
1274,000000	75,241978
1273,000000	75,225356
1272,000000	75,211864
1271,000000	75,203115
1270,000000	75,199725
1269,000000	75,223712
1268,000000	75,278722
1267,000000	75,245562
1266,000000	75,202281
1265,000000	75,171588
1264,000000	75,144453
1263,000000	75,125140
1262,000000	75,118755
1261,000000	75,111914
1260,000000	75,104295
1259,000000	75,081863
1258,000000	75,072732
1257,000000	75,067261
1256,000000	75,068185
1255,000000	75,063019
1254,000000	75,056974
1253,000000	75,056141
1252,000000	75,058625
1251,000000	75,081928
1250,000000	75,081049
1249,000000	75,035709
1248,000000	75,030647
1247,000000	75,027910
1246,000000	75,035053
1245,000000	75,015936
1244,000000	75,045345
1243,000000	75,054378
1242,000000	74,993518
1241,000000	74,996010
1240,000000	74,992601
1239,000000	74,987029
1238,000000	74,991766
1237,000000	74,969558
1236,000000	74,949953
1235,000000	74,952827
1234,000000	74,955124
1233,000000	74,954483
1232,000000	74,946351
1231,000000	74,923661
1230,000000	74,940310
1229,000000	74,961710
1228,000000	74,939506
1227,000000	74,919107
1226,000000	74,913875
1225,000000	74,923432
1224,000000	74,958423
1223,000000	74,995099
1222,000000	74,939258
1221,000000	74,868028
1220,000000	74,854868
1219,000000	74,858052
1218,000000	74,846603
1217,000000	74,839822
1216,000000	74,820390
1215,000000	74,822861
1214,000000	74,823900
1213,000000	74,823253
1212,000000	74,814294
1211,000000	74,818573
1210,000000	74,826335
1209,000000	74,829007
1208,000000	74,817453
1207,000000	74,881987
1206,000000	74,848594
1205,000000	74,808216
1204,000000	74,813606
1203,000000	74,800978
1202,000000	74,798426
1201,000000	74,814221
1200,000000	74,803351
1199,000000	74,803502
1198,000000	74,781203
1197,000000	74,792380
1196,000000	74,774620
1195,000000	74,759732
1194,000000	74,763007
1193,000000	74,773355
1192,000000	74,775625
1191,000000	74,776519
1190,000000	74,760195
1189,000000	74,763332
1188,000000	74,738770
1187,000000	74,735291
1186,000000	74,714168
1185,000000	74,699248
1184,000000	74,674440
1183,000000	74,697773
1182,000000	74,694235
1181,000000	74,686153
1180,000000	74,681010
1179,000000	74,675270
1178,000000	74,651478
1177,000000	74,657748
1176,000000	74,643716
1175,000000	74,656598
1174,000000	74,638530
1173,000000	74,639004
1172,000000	74,614353
1171,000000	74,608784
1170,000000	74,587912
1169,000000	74,604307
1168,000000	74,574059
1167,000000	74,552199
1166,000000	74,535579
1165,000000	74,535518
1164,000000	74,534157
1163,000000	74,547537
1162,000000	74,542586
1161,000000	74,520382
1160,000000	74,491358
1159,000000	74,499908
1158,000000	74,491663
1157,000000	74,489708
1156,000000	74,434143
1155,000000	74,476465
1154,000000	74,461119
1153,000000	74,448479
1152,000000	74,417212
1151,000000	74,416930
1150,000000	74,390451
1149,000000	74,409518
1148,000000	74,359431
1147,000000	74,358871
1146,000000	74,268361
1145,000000	74,296412
1144,000000	74,318228
1143,000000	74,323502
1142,000000	74,323478
1141,000000	74,301303
1140,000000	74,281742
1139,000000	74,285777
1138,000000	74,280259
1137,000000	74,287381
1136,000000	74,264563
1135,000000	74,274235
1134,000000	74,168192
1133,000000	74,246484
1132,000000	74,244213
1131,000000	74,236607
1130,000000	74,212580
1129,000000	74,221197
1128,000000	74,207903
1127,000000	74,200724
1126,000000	74,181755
1125,000000	74,113025
1124,000000	74,059488
1123,000000	74,073998
1122,000000	74,044448
1121,000000	74,103849
1120,000000	74,108983
1119,000000	74,081470
1118,000000	74,054567
1117,000000	74,050615
1116,000000	74,039216
1115,000000	74,057833
1114,000000	74,001034
1113,000000	74,012017
1112,000000	73,968326
1111,000000	73,987230
1110,000000	73,962922
1109,000000	73,993629
1108,000000	73,957344
1107,000000	73,961169
1106,000000	73,940939
1105,000000	73,948138
1104,000000	73,936271
1103,000000	73,934848
1102,000000	73,905891
1101,000000	73,907358
1100,000000	73,878465
1099,000000	73,903925
1098,000000	73,876818
1097,000000	73,890970
1096,000000	73,848562
1095,000000	73,868073
1094,000000	73,777524
1093,000000	73,773169
1092,000000	73,841172
1091,000000	73,840494
1090,000000	73,820307
1089,000000	73,823123
1088,000000	73,798588
1087,000000	73,725965
1086,000000	73,700585
1085,000000	73,765244
1084,000000	73,770012
1083,000000	73,780818
1082,000000	73,745119
1081,000000	73,752714
1080,000000	73,646808
1079,000000	73,648124
1078,000000	73,708434
1077,000000	73,717454
1076,000000	73,676089
1075,000000	73,686620
1074,000000	73,553177
1073,000000	73,608439
1072,000000	73,579827
1071,000000	73,670194
1070,000000	73,666603
1069,000000	73,681268
1068,000000	73,651273
1067,000000	73,651039
1066,000000	73,523487
1065,000000	73,541853
1064,000000	73,619085
1063,000000	73,621029
1062,000000	73,617755
1061,000000	73,641065
1060,000000	73,499648
1059,000000	73,503687
1058,000000	73,490463
1057,000000	73,581092
1056,000000	73,557213
1055,000000	73,576425
1054,000000	73,470441
1053,000000	73,478311
1052,000000	73,449830
1051,000000	73,538747
1050,000000	73,509106
1049,000000	73,435189
1048,000000	73,422193
1047,000000	73,443373
1046,000000	73,525979
1045,000000	73,418897
1044,000000	73,401403
1043,000000	73,422498
1042,000000	73,495840
1041,000000	73,457706
1040,000000	73,324563
1039,000000	73,341836
1038,000000	73,346009
1037,000000	73,432586
1036,000000	73,309930
1035,000000	73,320412
1034,000000	73,401979
1033,000000	73,392683
1032,000000	73,261509
1031,000000	73,273037
1030,000000	73,241824
1029,000000	73,236942
1028,000000	73,227700
1027,000000	73,254164
1026,000000	73,306720
1025,000000	73,213203
1024,000000	73,197388
1023,000000	73,208201
1022,000000	73,148069
1021,000000	73,166270
1020,000000	73,176745
1019,000000	73,239647
1018,000000	73,120046
1017,000000	73,130643
1016,000000	73,109900
1015,000000	73,109976
1014,000000	73,056855
1013,000000	73,072071
1012,000000	72,990842
1011,000000	72,907403
1010,000000	73,000551
1009,000000	73,010089
1008,000000	72,980452
1007,000000	72,969391
1006,000000	72,935413
1005,000000	72,927896
1004,000000	72,917368
1003,000000	72,936629
1002,000000	72,890889
1001,000000	72,819045
1000,000000	72,732826
999,000000	72,845247
998,000000	72,803622
997,000000	72,713045
996,000000	72,755342
995,000000	72,670249
994,000000	72,767060
993,000000	72,762268
992,000000	72,688049
991,000000	72,593686
990,000000	72,648695
989,000000	72,751793
988,000000	72,699289
987,000000	72,599130
986,000000	72,573132
985,000000	72,634738
984,000000	72,678443
983,000000	72,591712
982,000000	72,589562
981,000000	72,611421
980,000000	72,685090
979,000000	72,724366
978,000000	72,741761
977,000000	72,820122
976,000000	72,858806
975,000000	72,986569
974,000000	73,116982
973,000000	73,255909
972,000000	73,412703
971,000000	73,544580
970,000000	73,571836
969,000000	73,562313
968,000000	73,535186
967,000000	73,493773
966,000000	73,410880
965,000000	73,274432
964,000000	73,122343
963,000000	73,113644
962,000000	73,112010
961,000000	73,110034
960,000000	73,105044
959,000000	73,101283
958,000000	73,088507
957,000000	73,080645
956,000000	73,055899
955,000000	73,046617
954,000000	73,041832
953,000000	73,039571
952,000000	73,018309
951,000000	73,017375
950,000000	73,005577
949,000000	73,003290
948,000000	73,011266
947,000000	73,012503
946,000000	72,991927
945,000000	72,991456
944,000000	72,971546
943,000000	72,950559
942,000000	72,950107
941,000000	72,951853
940,000000	72,959481
939,000000	72,954858
938,000000	72,933287
937,000000	72,912277
936,000000	72,905332
935,000000	72,902897
934,000000	72,883869
933,000000	72,858961
932,000000	72,864291
931,000000	72,871062
930,000000	72,872710
929,000000	72,885069
928,000000	72,871434
927,000000	72,851556
926,000000	72,840226
925,000000	72,819357
924,000000	72,823545
923,000000	72,815633
922,000000	72,820032
921,000000	72,814152
920,000000	72,816731
919,000000	72,816507
918,000000	72,797167
917,000000	72,785828
916,000000	72,781086
915,000000	72,772725
914,000000	72,787233
913,000000	72,761417
912,000000	72,732335
911,000000	72,715951
910,000000	72,711134
909,000000	72,701147
908,000000	72,700619
907,000000	72,725032
906,000000	72,748778
905,000000	72,695200
904,000000	72,684906
903,000000	72,674619
902,000000	72,655603
901,000000	72,610085
900,000000	72,635845
899,000000	72,625296
898,000000	72,623443
897,000000	72,553420
896,000000	72,556776
895,000000	72,605930
894,000000	72,599862
893,000000	72,543358
892,000000	72,529323
891,000000	72,525879
890,000000	72,516880
889,000000	72,477938
888,000000	72,481014
887,000000	72,465697
886,000000	72,512280
885,000000	72,460750
884,000000	72,443243
883,000000	72,413610
882,000000	72,438397
881,000000	72,411801
880,000000	72,432536
879,000000	72,354585
878,000000	72,342018
877,000000	72,319683
876,000000	72,371314
875,000000	72,330030
874,000000	72,368021
873,000000	72,275933
872,000000	72,292954
871,000000	72,285201
870,000000	72,305282
869,000000	72,284307
868,000000	72,277227
867,000000	72,197685
866,000000	72,269844
865,000000	72,187151
864,000000	72,271326
863,000000	72,095800
862,000000	72,164414
861,000000	72,230185
860,000000	72,247931
859,000000	71,944442
858,000000	72,148767
857,000000	72,060122
856,000000	71,963549
855,000000	72,061781
854,000000	72,074252
853,000000	71,750364
852,000000	72,080445
851,000000	72,201729
850,000000	72,039643
849,000000	71,656170
848,000000	72,038066
847,000000	72,028488
846,000000	72,130023
845,000000	72,114641
844,000000	72,032579
843,000000	71,845419
842,000000	71,906987
841,000000	72,042700
840,000000	71,784743
839,000000	71,748177
838,000000	71,966669
837,000000	71,966687
836,000000	71,740672
835,000000	71,984994
834,000000	72,043792
833,000000	71,845574
832,000000	71,870787
831,000000	71,725662
830,000000	71,558932
829,000000	71,723507
828,000000	71,715476
827,000000	71,762529
826,000000	71,781006
825,000000	71,564309
824,000000	71,675114
823,000000	71,813376
822,000000	71,750066
821,000000	71,651780
820,000000	71,788452
819,000000	71,642154
818,000000	71,704746
817,000000	71,642238
816,000000	71,601520
815,000000	71,607644
814,000000	71,706366
813,000000	71,544173
812,000000	71,622964
811,000000	71,606397
810,000000	71,681322
809,000000	71,653507
808,000000	71,550896
807,000000	71,551600
806,000000	71,612931
805,000000	71,520747
804,000000	71,628332
803,000000	71,625903
802,000000	71,675078
801,000000	71,503683
800,000000	71,526553
799,000000	71,434146
798,000000	71,464431
797,000000	71,464239
796,000000	71,473155
795,000000	71,524121
794,000000	71,328600
793,000000	71,379172
792,000000	71,521112
791,000000	71,334710
790,000000	71,421561
789,000000	71,497261
788,000000	71,396947
787,000000	71,339510
786,000000	71,353232
785,000000	71,453328
784,000000	71,185064
783,000000	71,222860
782,000000	71,229912
781,000000	71,299760
780,000000	71,205042
779,000000	71,297770
778,000000	71,100896
777,000000	71,260910
776,000000	71,254183
775,000000	71,273624
774,000000	71,274354
773,000000	71,192691
772,000000	71,161886
771,000000	71,262972
770,000000	71,199195
769,000000	71,180806
768,000000	71,210379
767,000000	71,183109
766,000000	71,137671
765,000000	71,171095
764,000000	71,061369
763,000000	71,065738
762,000000	71,184327
761,000000	71,160177
760,000000	71,185893
759,000000	71,192184
758,000000	71,139196
757,000000	71,079219
756,000000	71,108952
755,000000	71,092303
754,000000	70,968839
753,000000	71,057544
752,000000	71,027988
751,000000	70,919232
750,000000	70,898390
749,000000	70,976665
748,000000	70,978130
747,000000	70,945593
746,000000	70,920734
745,000000	70,852728
744,000000	70,803466
743,000000	70,892940
742,000000	70,858452
741,000000	70,926377
740,000000	70,945947
739,000000	70,944317
738,000000	70,930702
737,000000	70,862894
736,000000	70,815615
735,000000	70,816991
734,000000	70,774812
733,000000	70,760503
732,000000	70,781219
731,000000	70,701918
730,000000	70,733788
729,000000	70,706855
728,000000	70,697192
727,000000	70,697625
726,000000	70,704794
725,000000	70,679663
724,000000	70,620156
723,000000	70,703115
722,000000	70,605908
721,000000	70,606322
720,000000	70,598328
719,000000	70,641292
718,000000	70,582547
717,000000	70,657879
716,000000	70,520096
715,000000	70,550655
714,000000	70,560465
713,000000	70,600620
712,000000	70,573165
711,000000	70,501008
710,000000	70,514292
709,000000	70,474770
708,000000	70,482938
707,000000	70,501967
706,000000	70,465760
705,000000	70,449238
704,000000	70,453524
703,000000	70,471739
702,000000	70,517135
701,000000	70,446740
700,000000	70,426602
699,000000	70,430818
698,000000	70,432678
697,000000	70,414948
696,000000	70,394399
695,000000	70,287829
694,000000	70,376839
693,000000	70,380812
692,000000	70,343455
691,000000	70,365231
690,000000	70,280664
689,000000	70,211104
688,000000	70,179442
687,000000	70,221580
686,000000	70,254575
685,000000	70,163347
684,000000	70,149233
683,000000	70,195479
682,000000	70,178450
681,000000	70,161144
680,000000	70,160043
679,000000	70,114565
678,000000	70,082414
677,000000	70,078978
676,000000	70,045007
675,000000	70,006416
674,000000	69,985068
673,000000	69,969661
672,000000	69,937219
671,000000	69,917295
670,000000	69,940898
669,000000	69,960264
668,000000	69,922598
667,000000	69,878300
666,000000	69,878823
665,000000	69,905113
664,000000	69,869672
663,000000	69,903907
662,000000	69,901606
661,000000	69,852656
660,000000	69,829669
659,000000	69,825975
658,000000	69,800854
657,000000	69,777430
656,000000	69,815458
655,000000	69,811880
654,000000	69,765974
653,000000	69,732782
652,000000	69,726753
651,000000	69,720355
650,000000	69,725360
649,000000	69,746653
648,000000	69,692339
647,000000	69,651481
646,000000	69,690982
645,000000	69,689714
644,000000	69,617075
643,000000	69,601110
642,000000	69,645663
641,000000	69,626168
640,000000	69,621693
639,000000	69,593502
638,000000	69,557045
637,000000	69,571097
636,000000	69,559744
635,000000	69,541276
634,000000	69,524009
633,000000	69,473507
632,000000	69,446798
631,000000	69,460203
630,000000	69,444613
629,000000	69,433286
628,000000	69,379944
627,000000	69,338601
626,000000	69,361628
625,000000	69,337332
624,000000	69,314143
623,000000	69,288321
622,000000	69,263222
621,000000	69,252596
620,000000	69,257414
619,000000	69,251544
618,000000	69,212516
617,000000	69,205483
616,000000	69,208424
615,000000	69,183604
614,000000	69,171589
613,000000	69,193850
612,000000	69,177128
611,000000	69,141085
610,000000	69,123913
609,000000	69,119917
608,000000	69,108709
607,000000	69,070950
606,000000	69,083190
605,000000	69,083218
604,000000	69,034055
603,000000	69,018378
602,000000	69,060720
601,000000	69,031906
600,000000	69,003449
599,000000	68,955730
598,000000	68,914222
597,000000	68,869560
596,000000	68,874932
595,000000	68,902683
594,000000	68,880960
593,000000	68,861832
592,000000	68,826762
591,000000	68,828092
590,000000	68,809546
589,000000	68,769066
588,000000	68,734818
587,000000	68,722032
586,000000	68,703587
585,000000	68,679206
584,000000	68,669438
583,000000	68,658312
582,000000	68,631905
581,000000	68,660623
580,000000	68,593132
579,000000	68,568972
578,000000	68,544746
577,000000	68,541080
576,000000	68,588771
575,000000	68,520506
574,000000	68,496943
573,000000	68,496922
572,000000	68,469644
571,000000	68,489149
570,000000	68,489553
569,000000	68,440521
568,000000	68,402015
567,000000	68,377358
566,000000	68,383594
565,000000	68,342744
564,000000	68,378784
563,000000	68,316289
562,000000	68,364154
561,000000	68,437971
560,000000	68,417196
559,000000	68,425079
558,000000	68,365928
557,000000	68,380387
556,000000	68,350468
555,000000	68,311960
554,000000	68,291706
553,000000	68,237940
552,000000	68,227180
551,000000	68,275786
550,000000	68,290741
549,000000	68,246664
548,000000	68,136506
547,000000	68,076415
546,000000	68,115234
545,000000	68,069971
544,000000	68,046204
543,000000	68,058326
542,000000	68,022191
541,000000	68,032108
540,000000	68,020004
539,000000	67,996184
538,000000	68,020103
537,000000	67,985515
536,000000	67,919831
535,000000	67,917219
534,000000	67,894737
533,000000	67,857771
532,000000	67,843564
531,000000	67,834446
530,000000	67,829112
529,000000	67,822342
528,000000	67,776935
527,000000	67,778936
526,000000	67,735813
525,000000	67,756643
524,000000	67,688458
523,000000	67,655885
522,000000	67,653071
521,000000	67,626229
520,000000	67,545266
519,000000	67,488582
518,000000	67,488678
517,000000	67,429176
516,000000	67,391639
515,000000	67,350858
514,000000	67,274905
513,000000	67,284619
512,000000	67,240454
511,000000	67,164526
510,000000	67,145378
509,000000	67,088831
508,000000	67,061100
507,000000	67,080784
506,000000	67,015994
505,000000	66,921845
504,000000	66,931126
503,000000	66,890194
502,000000	66,870378
501,000000	66,869045
500,000000	66,824638
499,000000	66,807873
498,000000	66,795690
497,000000	66,756125
496,000000	66,771073
495,000000	66,739397
494,000000	66,663550
493,000000	66,696532
492,000000	66,686066
491,000000	66,680731
490,000000	66,732197
489,000000	66,722360
488,000000	66,658292
487,000000	66,697461
486,000000	66,741170
485,000000	66,708939
484,000000	66,728503
483,000000	66,749091
482,000000	66,783009
481,000000	66,734025
480,000000	66,682141
479,000000	66,617718
478,000000	66,576169
477,000000	66,492896
476,000000	66,499843
475,000000	66,462576
474,000000	66,360804
473,000000	66,323899
472,000000	66,227409
471,000000	66,221733
470,000000	66,178769
469,000000	66,128312
468,000000	65,984531
467,000000	65,935741
466,000000	65,859438
465,000000	65,797672
464,000000	65,720325
463,000000	65,702898
462,000000	65,624496
461,000000	65,565966
460,000000	65,566941
459,000000	65,533290
458,000000	65,514744
457,000000	65,413079
456,000000	65,380756
455,000000	65,336684
454,000000	65,333620
453,000000	65,226265
452,000000	65,187649
451,000000	65,178595
450,000000	65,128762
449,000000	65,054472
448,000000	64,968094
447,000000	64,898066
446,000000	64,777467
445,000000	64,758782
444,000000	64,660033
443,000000	64,594678
442,000000	64,519860
441,000000	64,393508
440,000000	64,215564
439,000000	64,077214
438,000000	63,969527
437,000000	63,787996
436,000000	63,616340
435,000000	63,345495
434,000000	63,143440
433,000000	62,858966
432,000000	62,553598
431,000000	62,263582
430,000000	61,885165
429,000000	61,428249
428,000000	60,950706
427,000000	60,445854
426,000000	59,857028
425,000000	59,241315
424,000000	58,593822
423,000000	57,801104
422,000000	57,074045
421,000000	56,341782
420,000000	55,525626
419,000000	54,755397
418,000000	53,984704
417,000000	53,285758
416,000000	52,666779
415,000000	52,143602
414,000000	51,653713
413,000000	51,282016
412,000000	51,009423
411,000000	50,821726
410,000000	50,724293
409,000000	50,729615
408,000000	50,798460
407,000000	50,926437
406,000000	51,094622
405,000000	51,307873
404,000000	51,584068
403,000000	51,901241
402,000000	52,210214
401,000000	52,531992
400,000000	52,913392
399,000000	53,231843
398,000000	53,583915
397,000000	53,971713
396,000000	54,372688
395,000000	54,659290
394,000000	55,036939
393,000000	55,320406
392,000000	55,592010
391,000000	55,949734
390,000000	56,279402
389,000000	56,585255
388,000000	56,869076
387,000000	57,078258
386,000000	57,404549
385,000000	57,674181
384,000000	57,900903
383,000000	58,262582
382,000000	58,658427
381,000000	58,982356
380,000000	59,280939
379,000000	59,589534
378,000000	59,880913
377,000000	60,249646
376,000000	60,924178
375,000000	61,559468
374,000000	62,103903
373,000000	63,037922
372,000000	64,121693
371,000000	65,151523
370,000000	66,251045
369,000000	67,167741
368,000000	68,247753
367,000000	69,345802
366,000000	70,314866
365,000000	71,300505
364,000000	72,491024
363,000000	73,595023
362,000000	74,413019
361,000000	75,155524
360,000000	75,994611
359,000000	76,825967
358,000000	77,680604
357,000000	78,427955
356,000000	79,224701
355,000000	79,730427
354,000000	80,264953
353,000000	81,148119
352,000000	82,087040
351,000000	82,796392
350,000000	83,645525
349,000000	84,142323
348,000000	84,428317
347,000000	85,270511
346,000000	85,977325
345,000000	86,674988
344,000000	87,187193
343,000000	87,083418
342,000000	87,103616
341,000000	87,477420
340,000000	87,584483
339,000000	87,403634
338,000000	87,228376
337,000000	87,335810
336,000000	87,694765
335,000000	87,788514
334,000000	87,287984
333,000000	86,880088
332,000000	87,075613
331,000000	87,258193
330,000000	87,005438
329,000000	86,633524
328,000000	86,560635
327,000000	86,679355
326,000000	86,867353
325,000000	86,393285
324,000000	86,627927
323,000000	86,853585
322,000000	86,716234
321,000000	86,406725
320,000000	86,261731
319,000000	86,927315
318,000000	87,554656
317,000000	87,751702
316,000000	87,911719
315,000000	88,111033
314,000000	88,313910
313,000000	88,382367
312,000000	88,466521
311,000000	88,615482
310,000000	88,896449
309,000000	89,423206
308,000000	89,850176
307,000000	90,532575
306,000000	91,407691
305,000000	92,312459
304,000000	93,252532
303,000000	93,881770
302,000000	94,418260
301,000000	94,862042
300,000000	95,123879
299,000000	95,585922
298,000000	96,193087
297,000000	96,644703
296,000000	97,280928
295,000000	97,927615
294,000000	98,536201
293,000000	99,170146
292,000000	99,855605
291,000000	100,606990
290,000000	101,395213
289,000000	102,090159
288,000000	102,855783
287,000000	103,589917
286,000000	104,398785
285,000000	105,214315
284,000000	106,063750
283,000000	106,607986
282,000000	107,101172
281,000000	107,428923
280,000000	107,841900
279,000000	108,396933
278,000000	108,766479
277,000000	108,835546
276,000000	109,069032
275,000000	109,253039
274,000000	109,295723
273,000000	109,690624
272,000000	110,056322
271,000000	110,479192
270,000000	110,759931
269,000000	110,982018
268,000000	111,363767
267,000000	111,970007
266,000000	112,630126
265,000000	113,609196
264,000000	114,681048
263,000000	116,115346
262,000000	117,658251
261,000000	119,187091
260,000000	120,493540
259,000000	121,897628
258,000000	123,608290
257,000000	124,974382
256,000000	126,588167
255,000000	128,106640
254,000000	129,766829
253,000000	131,536141
252,000000	133,614400
251,000000	135,587783
250,000000	137,813501
249,000000	140,056853
248,000000	141,251218
247,000000	142,892066
246,000000	143,242324
245,000000	146,098440
244,000000	148,397380
243,000000	150,817395
242,000000	153,365161
241,000000	155,688473
240,000000	158,349036
239,000000	161,110418
238,000000	164,060903
237,000000	167,398365
236,000000	171,478369
235,000000	175,989400
234,000000	180,365494
233,000000	184,309554
232,000000	187,845223
231,000000	191,250177
230,000000	195,157303
229,000000	198,874733
228,000000	202,533319
227,000000	206,140596
226,000000	210,374122
225,000000	213,848783
224,000000	217,894288
223,000000	222,128338
222,000000	226,180374
221,000000	229,403232
220,000000	233,310192
219,000000	236,984217
218,000000	240,827987
217,000000	244,610540
216,000000	247,996714
215,000000	251,374074
214,000000	255,457636
213,000000	259,441327
212,000000	263,483982
211,000000	269,323504
210,000000	274,897816
209,000000	282,170363
208,000000	288,488721
207,000000	297,558532
206,000000	307,251716
205,000000	316,422548
204,000000	328,526871
203,000000	341,389081
202,000000	355,718767
201,000000	370,278048
200,000000	386,320210
