PE UV       SUBTECH     SPECTRUM    ASCII       PEDS        4.00        
   -1
c.Sample.asc
22/03/28
13:30:07.00
22/03/28
13:30:07.00
Administrator

200,000000
1
Lambda 1050
1050L1808311
PerkinElmer UV WinLab 6.4.0.973 / 2.02.11 Lambda 900 UV/VIS/NIR, May 23 2018 11:23:04

0
0
3350/servo 860,8/2
0
0
UV/VIS
1
1
1
CommonBeamDepol,RBeamAtt,SBeamAtt,60mm sphere
0
0
0
0
Program
Program
3350/servo 860,8/2
3350/0,2 860,8/0,2
3350/0,2 860,8/0,2
0
1.00
 
 
 
0
 
860,8
319,2
860,8
Front
100
on
S:100 R:100
 
0
0
0
 
0
 
 
 
0
 
 
0
0
0
0
0
 
 
 
 
0
0


0
0
#HDR
-1
-1
#GR
nm
%T
1.0
0.0
2000,000000
-1,000000
1801
8
345,663232
54,092411
#DATA
2000,000000	88,950382
1999,000000	88,935095
1998,000000	88,995237
1997,000000	88,971262
1996,000000	88,990520
1995,000000	88,953130
1994,000000	88,964141
1993,000000	88,977005
1992,000000	89,003557
1991,000000	88,961655
1990,000000	88,983709
1989,000000	88,944769
1988,000000	88,964587
1987,000000	88,944835
1986,000000	89,011293
1985,000000	89,015716
1984,000000	88,972965
1983,000000	88,970034
1982,000000	89,024466
1981,000000	89,013020
1980,000000	89,029369
1979,000000	88,998584
1978,000000	88,998567
1977,000000	89,002926
1976,000000	89,044276
1975,000000	89,006606
1974,000000	89,018354
1973,000000	88,999514
1972,000000	89,000079
1971,000000	89,004690
1970,000000	89,022382
1969,000000	89,011808
1968,000000	89,062769
1967,000000	89,001092
1966,000000	89,042337
1965,000000	89,025532
1964,000000	89,043643
1963,000000	89,092726
1962,000000	89,117914
1961,000000	89,074920
1960,000000	89,080386
1959,000000	89,073920
1958,000000	89,087562
1957,000000	89,084354
1956,000000	89,118440
1955,000000	89,104397
1954,000000	89,111775
1953,000000	89,101440
1952,000000	89,107324
1951,000000	89,146952
1950,000000	89,143858
1949,000000	89,143183
1948,000000	89,158862
1947,000000	89,146473
1946,000000	89,163003
1945,000000	89,139128
1944,000000	89,134804
1943,000000	89,108835
1942,000000	89,114566
1941,000000	89,128068
1940,000000	89,129640
1939,000000	89,174142
1938,000000	89,202144
1937,000000	89,179704
1936,000000	89,211144
1935,000000	89,181158
1934,000000	89,235417
1933,000000	89,211218
1932,000000	89,207891
1931,000000	89,197566
1930,000000	89,138408
1929,000000	89,174977
1928,000000	89,174751
1927,000000	89,205657
1926,000000	89,184322
1925,000000	89,167919
1924,000000	89,240036
1923,000000	89,168311
1922,000000	89,224924
1921,000000	89,166428
1920,000000	89,168680
1919,000000	89,140864
1918,000000	89,109965
1917,000000	89,094422
1916,000000	89,055258
1915,000000	89,046105
1914,000000	89,033501
1913,000000	89,013553
1912,000000	89,012037
1911,000000	88,976637
1910,000000	88,940589
1909,000000	88,919583
1908,000000	88,903743
1907,000000	88,875654
1906,000000	88,853440
1905,000000	88,794401
1904,000000	88,805345
1903,000000	88,802213
1902,000000	88,769934
1901,000000	88,691054
1900,000000	88,687300
1899,000000	88,637267
1898,000000	88,558466
1897,000000	88,496292
1896,000000	88,517779
1895,000000	88,496895
1894,000000	88,446141
1893,000000	88,428345
1892,000000	88,389552
1891,000000	88,315349
1890,000000	88,295044
1889,000000	88,309328
1888,000000	88,301347
1887,000000	88,271169
1886,000000	88,259859
1885,000000	88,233599
1884,000000	88,244931
1883,000000	88,236554
1882,000000	88,198679
1881,000000	88,142536
1880,000000	88,152577
1879,000000	88,126708
1878,000000	88,084108
1877,000000	88,082030
1876,000000	88,082584
1875,000000	88,066459
1874,000000	88,043797
1873,000000	88,001860
1872,000000	87,977571
1871,000000	87,942782
1870,000000	87,898833
1869,000000	87,828630
1868,000000	87,804447
1867,000000	87,765657
1866,000000	87,742048
1865,000000	87,779690
1864,000000	87,789044
1863,000000	87,746603
1862,000000	87,715926
1861,000000	87,721590
1860,000000	87,697449
1859,000000	87,634115
1858,000000	87,647986
1857,000000	87,658008
1856,000000	87,608754
1855,000000	87,582645
1854,000000	87,615998
1853,000000	87,618071
1852,000000	87,576414
1851,000000	87,566220
1850,000000	87,535517
1849,000000	87,508662
1848,000000	87,486978
1847,000000	87,469168
1846,000000	87,464475
1845,000000	87,449484
1844,000000	87,409922
1843,000000	87,399262
1842,000000	87,362860
1841,000000	87,356810
1840,000000	87,364594
1839,000000	87,311789
1838,000000	87,266452
1837,000000	87,250899
1836,000000	87,212115
1835,000000	87,182939
1834,000000	87,141247
1833,000000	87,108144
1832,000000	87,096944
1831,000000	87,063317
1830,000000	87,032356
1829,000000	87,016691
1828,000000	86,988474
1827,000000	87,002474
1826,000000	86,992036
1825,000000	86,948232
1824,000000	86,921739
1823,000000	86,915640
1822,000000	86,902572
1821,000000	86,875835
1820,000000	86,860230
1819,000000	86,858032
1818,000000	86,823961
1817,000000	86,804225
1816,000000	86,786335
1815,000000	86,747614
1814,000000	86,717099
1813,000000	86,715026
1812,000000	86,719185
1811,000000	86,718347
1810,000000	86,693717
1809,000000	86,665683
1808,000000	86,638213
1807,000000	86,636729
1806,000000	86,588904
1805,000000	86,548477
1804,000000	86,530381
1803,000000	86,519928
1802,000000	86,509602
1801,000000	86,503170
1800,000000	86,466602
1799,000000	86,457919
1798,000000	86,428037
1797,000000	86,420413
1796,000000	86,390438
1795,000000	86,378144
1794,000000	86,373892
1793,000000	86,361723
1792,000000	86,348742
1791,000000	86,318551
1790,000000	86,279503
1789,000000	86,266181
1788,000000	86,269913
1787,000000	86,280116
1786,000000	86,233824
1785,000000	86,215876
1784,000000	86,219084
1783,000000	86,207011
1782,000000	86,169940
1781,000000	86,180419
1780,000000	86,144279
1779,000000	86,148007
1778,000000	86,122420
1777,000000	86,123100
1776,000000	86,113029
1775,000000	86,073589
1774,000000	86,084019
1773,000000	86,083297
1772,000000	86,075871
1771,000000	86,076362
1770,000000	86,027727
1769,000000	86,037000
1768,000000	86,059251
1767,000000	86,045663
1766,000000	86,034987
1765,000000	86,026212
1764,000000	85,995358
1763,000000	85,999694
1762,000000	85,987513
1761,000000	86,005900
1760,000000	85,949630
1759,000000	85,948957
1758,000000	85,922579
1757,000000	85,931102
1756,000000	85,940984
1755,000000	85,945515
1754,000000	85,922378
1753,000000	85,920282
1752,000000	85,915127
1751,000000	85,952676
1750,000000	85,889549
1749,000000	85,913460
1748,000000	85,894231
1747,000000	85,899347
1746,000000	85,887993
1745,000000	85,908812
1744,000000	85,879539
1743,000000	85,868618
1742,000000	85,870282
1741,000000	85,869058
1740,000000	85,844768
1739,000000	85,846405
1738,000000	85,847509
1737,000000	85,841898
1736,000000	85,852324
1735,000000	85,847684
1734,000000	85,840999
1733,000000	85,828798
1732,000000	85,822009
1731,000000	85,822512
1730,000000	85,853523
1729,000000	85,841667
1728,000000	85,845799
1727,000000	85,830097
1726,000000	85,793136
1725,000000	85,837867
1724,000000	85,815291
1723,000000	85,824959
1722,000000	85,803839
1721,000000	85,824203
1720,000000	85,824562
1719,000000	85,824425
1718,000000	85,819707
1717,000000	85,815371
1716,000000	85,786905
1715,000000	85,788095
1714,000000	85,758591
1713,000000	85,746291
1712,000000	85,785886
1711,000000	85,785419
1710,000000	85,756132
1709,000000	85,733246
1708,000000	85,738551
1707,000000	85,721239
1706,000000	85,685432
1705,000000	85,683358
1704,000000	85,670451
1703,000000	85,664458
1702,000000	85,653315
1701,000000	85,632887
1700,000000	85,591514
1699,000000	85,622099
1698,000000	85,576019
1697,000000	85,588079
1696,000000	85,569861
1695,000000	85,565501
1694,000000	85,539702
1693,000000	85,517093
1692,000000	85,479446
1691,000000	85,521691
1690,000000	85,496029
1689,000000	85,486230
1688,000000	85,484970
1687,000000	85,479815
1686,000000	85,443639
1685,000000	85,446756
1684,000000	85,463019
1683,000000	85,455988
1682,000000	85,429073
1681,000000	85,467390
1680,000000	85,425470
1679,000000	85,442049
1678,000000	85,461635
1677,000000	85,481698
1676,000000	85,453287
1675,000000	85,475952
1674,000000	85,483530
1673,000000	85,489118
1672,000000	85,478233
1671,000000	85,531048
1670,000000	85,542462
1669,000000	85,580019
1668,000000	85,575783
1667,000000	85,608243
1666,000000	85,625409
1665,000000	85,649211
1664,000000	85,643994
1663,000000	85,698814
1662,000000	85,664940
1661,000000	85,676299
1660,000000	85,690677
1659,000000	85,748727
1658,000000	85,750914
1657,000000	85,774688
1656,000000	85,766479
1655,000000	85,813150
1654,000000	85,823261
1653,000000	85,834392
1652,000000	85,840672
1651,000000	85,840548
1650,000000	85,839500
1649,000000	85,850328
1648,000000	85,850696
1647,000000	85,848105
1646,000000	85,858956
1645,000000	85,864928
1644,000000	85,844608
1643,000000	85,867010
1642,000000	85,880632
1641,000000	85,898206
1640,000000	85,884315
1639,000000	85,911411
1638,000000	85,915535
1637,000000	85,936715
1636,000000	85,942220
1635,000000	85,969203
1634,000000	85,976260
1633,000000	85,996557
1632,000000	85,998584
1631,000000	86,006250
1630,000000	86,017170
1629,000000	86,043092
1628,000000	86,046291
1627,000000	86,046919
1626,000000	86,080316
1625,000000	86,110844
1624,000000	86,121044
1623,000000	86,128596
1622,000000	86,125615
1621,000000	86,175047
1620,000000	86,177332
1619,000000	86,191912
1618,000000	86,193833
1617,000000	86,216152
1616,000000	86,237701
1615,000000	86,240382
1614,000000	86,245201
1613,000000	86,252951
1612,000000	86,261024
1611,000000	86,274383
1610,000000	86,264152
1609,000000	86,279536
1608,000000	86,285724
1607,000000	86,301908
1606,000000	86,304745
1605,000000	86,312265
1604,000000	86,314102
1603,000000	86,332035
1602,000000	86,321817
1601,000000	86,330333
1600,000000	86,338494
1599,000000	86,366894
1598,000000	86,382779
1597,000000	86,398092
1596,000000	86,414565
1595,000000	86,423555
1594,000000	86,423325
1593,000000	86,406796
1592,000000	86,430939
1591,000000	86,380820
1590,000000	86,238184
1589,000000	86,076658
1588,000000	85,907011
1587,000000	85,796050
1586,000000	85,804075
1585,000000	85,813957
1584,000000	85,796734
1583,000000	85,800087
1582,000000	85,810595
1581,000000	85,786462
1580,000000	85,708286
1579,000000	85,597744
1578,000000	85,607023
1577,000000	85,531489
1576,000000	85,467063
1575,000000	85,685740
1574,000000	85,959244
1573,000000	86,074586
1572,000000	85,990528
1571,000000	85,858986
1570,000000	85,854258
1569,000000	85,856899
1568,000000	85,859688
1567,000000	85,854800
1566,000000	85,859884
1565,000000	85,875272
1564,000000	85,859584
1563,000000	85,852786
1562,000000	85,859788
1561,000000	85,850418
1560,000000	85,833411
1559,000000	85,818338
1558,000000	85,813507
1557,000000	85,824647
1556,000000	85,828612
1555,000000	85,834403
1554,000000	85,833623
1553,000000	85,827466
1552,000000	85,810554
1551,000000	85,804510
1550,000000	85,797801
1549,000000	85,781468
1548,000000	85,789120
1547,000000	85,893592
1546,000000	85,983283
1545,000000	85,878124
1544,000000	85,767270
1543,000000	85,747348
1542,000000	85,737795
1541,000000	85,724748
1540,000000	85,723132
1539,000000	85,722670
1538,000000	85,703779
1537,000000	85,689395
1536,000000	85,682705
1535,000000	85,794764
1534,000000	85,887921
1533,000000	85,871930
1532,000000	85,749991
1531,000000	85,654491
1530,000000	85,642467
1529,000000	85,625427
1528,000000	85,610941
1527,000000	85,585869
1526,000000	85,574959
1525,000000	85,576598
1524,000000	85,694328
1523,000000	85,771125
1522,000000	85,750291
1521,000000	85,605928
1520,000000	85,510336
1519,000000	85,499942
1518,000000	85,502571
1517,000000	85,493138
1516,000000	85,604669
1515,000000	85,682943
1514,000000	85,536656
1513,000000	85,434215
1512,000000	85,413290
1511,000000	85,382851
1510,000000	85,517065
1509,000000	85,458712
1508,000000	85,376283
1507,000000	85,354597
1506,000000	85,343911
1505,000000	85,462155
1504,000000	85,388565
1503,000000	85,306428
1502,000000	85,313007
1501,000000	85,292386
1500,000000	85,416133
1499,000000	85,452957
1498,000000	85,305820
1497,000000	85,229190
1496,000000	85,216819
1495,000000	85,197707
1494,000000	85,319959
1493,000000	85,382103
1492,000000	85,372564
1491,000000	85,220387
1490,000000	85,161552
1489,000000	85,135223
1488,000000	85,107164
1487,000000	85,076323
1486,000000	85,061991
1485,000000	85,054854
1484,000000	85,046501
1483,000000	85,165546
1482,000000	85,205517
1481,000000	85,173219
1480,000000	85,174518
1479,000000	85,152148
1478,000000	85,137285
1477,000000	85,117235
1476,000000	85,115260
1475,000000	85,073205
1474,000000	85,094252
1473,000000	85,056023
1472,000000	85,044238
1471,000000	85,009098
1470,000000	84,854295
1469,000000	84,815255
1468,000000	84,799262
1467,000000	84,782940
1466,000000	84,777137
1465,000000	84,759445
1464,000000	84,890878
1463,000000	84,937758
1462,000000	84,781098
1461,000000	84,728395
1460,000000	84,716680
1459,000000	84,700969
1458,000000	84,838144
1457,000000	84,855975
1456,000000	84,817286
1455,000000	84,668108
1454,000000	84,638953
1453,000000	84,608786
1452,000000	84,613425
1451,000000	84,601232
1450,000000	84,572439
1449,000000	84,574138
1448,000000	84,700741
1447,000000	84,699449
1446,000000	84,684840
1445,000000	84,674530
1444,000000	84,664729
1443,000000	84,658237
1442,000000	84,654750
1441,000000	84,640769
1440,000000	84,469216
1439,000000	84,428298
1438,000000	84,433115
1437,000000	84,430089
1436,000000	84,421814
1435,000000	84,405355
1434,000000	84,393615
1433,000000	84,399133
1432,000000	84,404333
1431,000000	84,358847
1430,000000	84,360367
1429,000000	84,339966
1428,000000	84,367092
1427,000000	84,338563
1426,000000	84,351583
1425,000000	84,323527
1424,000000	84,341162
1423,000000	84,340866
1422,000000	84,340285
1421,000000	84,445904
1420,000000	84,462256
1419,000000	84,345812
1418,000000	84,322848
1417,000000	84,436429
1416,000000	84,294940
1415,000000	84,302986
1414,000000	84,294405
1413,000000	84,394100
1412,000000	84,239966
1411,000000	84,077346
1410,000000	84,218834
1409,000000	84,229792
1408,000000	84,201100
1407,000000	84,361149
1406,000000	84,209663
1405,000000	84,167844
1404,000000	84,138845
1403,000000	84,113318
1402,000000	84,122896
1401,000000	84,110029
1400,000000	84,144171
1399,000000	84,140063
1398,000000	84,136588
1397,000000	84,156111
1396,000000	84,159781
1395,000000	84,155913
1394,000000	84,171653
1393,000000	84,130199
1392,000000	84,120884
1391,000000	84,118396
1390,000000	84,124407
1389,000000	84,099361
1388,000000	84,116767
1387,000000	84,091429
1386,000000	84,125678
1385,000000	84,131335
1384,000000	84,130154
1383,000000	84,129320
1382,000000	84,162493
1381,000000	84,132564
1380,000000	84,174221
1379,000000	84,189591
1378,000000	84,185129
1377,000000	84,218712
1376,000000	84,113506
1375,000000	84,253112
1374,000000	84,238169
1373,000000	84,045751
1372,000000	84,060523
1371,000000	84,044146
1370,000000	84,060452
1369,000000	84,043065
1368,000000	84,025078
1367,000000	84,008929
1366,000000	84,035047
1365,000000	84,004112
1364,000000	84,002423
1363,000000	83,989086
1362,000000	84,003757
1361,000000	84,209977
1360,000000	84,214989
1359,000000	84,223246
1358,000000	84,407776
1357,000000	84,374136
1356,000000	84,181182
1355,000000	84,187093
1354,000000	84,202931
1353,000000	84,234646
1352,000000	84,267616
1351,000000	84,293273
1350,000000	84,451460
1349,000000	84,415575
1348,000000	84,346298
1347,000000	84,342872
1346,000000	84,368654
1345,000000	84,378829
1344,000000	84,555133
1343,000000	84,513072
1342,000000	84,414875
1341,000000	84,452097
1340,000000	84,616031
1339,000000	84,598654
1338,000000	84,546353
1337,000000	84,658132
1336,000000	84,646218
1335,000000	84,548932
1334,000000	84,578120
1333,000000	84,667988
1332,000000	84,675148
1331,000000	84,686338
1330,000000	84,719971
1329,000000	84,708386
1328,000000	84,716357
1327,000000	84,699748
1326,000000	84,708494
1325,000000	84,726121
1324,000000	84,751523
1323,000000	84,714331
1322,000000	84,730139
1321,000000	84,724200
1320,000000	84,743335
1319,000000	84,728121
1318,000000	84,705888
1317,000000	84,644484
1316,000000	84,661420
1315,000000	84,659288
1314,000000	84,686397
1313,000000	84,736369
1312,000000	84,726766
1311,000000	84,713246
1310,000000	84,706008
1309,000000	84,671191
1308,000000	84,587888
1307,000000	84,583848
1306,000000	84,586923
1305,000000	84,552603
1304,000000	84,545803
1303,000000	84,545276
1302,000000	84,558969
1301,000000	84,548025
1300,000000	84,570299
1299,000000	84,615913
1298,000000	84,610058
1297,000000	84,585404
1296,000000	84,554302
1295,000000	84,467204
1294,000000	84,493947
1293,000000	84,554145
1292,000000	84,533001
1291,000000	84,489030
1290,000000	84,411248
1289,000000	84,438692
1288,000000	84,496765
1287,000000	84,477621
1286,000000	84,481365
1285,000000	84,428227
1284,000000	84,342492
1283,000000	84,331234
1282,000000	84,332074
1281,000000	84,361464
1280,000000	84,415625
1279,000000	84,397750
1278,000000	84,391255
1277,000000	84,359704
1276,000000	84,330698
1275,000000	84,306366
1274,000000	84,292609
1273,000000	84,260006
1272,000000	84,260272
1271,000000	84,239518
1270,000000	84,208412
1269,000000	84,190430
1268,000000	84,158873
1267,000000	84,068901
1266,000000	84,026523
1265,000000	83,991648
1264,000000	83,955554
1263,000000	83,945143
1262,000000	83,975043
1261,000000	83,986336
1260,000000	83,955202
1259,000000	83,930744
1258,000000	83,918234
1257,000000	83,904568
1256,000000	83,892677
1255,000000	83,874119
1254,000000	83,795272
1253,000000	83,710392
1252,000000	83,690620
1251,000000	83,656211
1250,000000	83,667475
1249,000000	83,711864
1248,000000	83,696956
1247,000000	83,622028
1246,000000	83,559574
1245,000000	83,548697
1244,000000	83,533049
1243,000000	83,552963
1242,000000	83,583207
1241,000000	83,581278
1240,000000	83,571747
1239,000000	83,550486
1238,000000	83,522093
1237,000000	83,499496
1236,000000	83,487388
1235,000000	83,482738
1234,000000	83,460406
1233,000000	83,433986
1232,000000	83,413782
1231,000000	83,396127
1230,000000	83,339663
1229,000000	83,289972
1228,000000	83,273086
1227,000000	83,283801
1226,000000	83,288086
1225,000000	83,282772
1224,000000	83,286789
1223,000000	83,242726
1222,000000	83,187645
1221,000000	83,158958
1220,000000	83,146811
1219,000000	83,136010
1218,000000	83,177112
1217,000000	83,210832
1216,000000	83,200529
1215,000000	83,193760
1214,000000	83,127165
1213,000000	83,071131
1212,000000	83,055970
1211,000000	83,106412
1210,000000	83,159157
1209,000000	83,168735
1208,000000	83,113789
1207,000000	83,064379
1206,000000	83,118103
1205,000000	83,167584
1204,000000	83,101922
1203,000000	83,077736
1202,000000	83,135808
1201,000000	83,169075
1200,000000	83,169242
1199,000000	83,176387
1198,000000	83,126838
1197,000000	83,123689
1196,000000	83,112904
1195,000000	83,104949
1194,000000	83,100187
1193,000000	83,103999
1192,000000	83,110914
1191,000000	83,133932
1190,000000	83,178612
1189,000000	83,195216
1188,000000	83,196066
1187,000000	83,237575
1186,000000	83,214390
1185,000000	83,219810
1184,000000	83,219339
1183,000000	83,230789
1182,000000	83,245027
1181,000000	83,288772
1180,000000	83,284245
1179,000000	83,290619
1178,000000	83,299935
1177,000000	83,312591
1176,000000	83,321541
1175,000000	83,348737
1174,000000	83,331207
1173,000000	83,351591
1172,000000	83,359509
1171,000000	83,368523
1170,000000	83,370275
1169,000000	83,399297
1168,000000	83,388487
1167,000000	83,394928
1166,000000	83,411739
1165,000000	83,441512
1164,000000	83,425653
1163,000000	83,450711
1162,000000	83,470495
1161,000000	83,492811
1160,000000	83,497404
1159,000000	83,479460
1158,000000	83,426586
1157,000000	83,425853
1156,000000	83,424190
1155,000000	83,515385
1154,000000	83,539305
1153,000000	83,545862
1152,000000	83,557637
1151,000000	83,573037
1150,000000	83,570061
1149,000000	83,583847
1148,000000	83,515430
1147,000000	83,508793
1146,000000	83,500048
1145,000000	83,592678
1144,000000	83,595455
1143,000000	83,624961
1142,000000	83,629789
1141,000000	83,646245
1140,000000	83,632167
1139,000000	83,641225
1138,000000	83,627141
1137,000000	83,643459
1136,000000	83,561496
1135,000000	83,574928
1134,000000	83,572932
1133,000000	83,660698
1132,000000	83,656706
1131,000000	83,670898
1130,000000	83,663007
1129,000000	83,689975
1128,000000	83,654460
1127,000000	83,572167
1126,000000	83,539021
1125,000000	83,527813
1124,000000	83,497936
1123,000000	83,547832
1122,000000	83,546411
1121,000000	83,549359
1120,000000	83,549389
1119,000000	83,552438
1118,000000	83,506802
1117,000000	83,490867
1116,000000	83,473994
1115,000000	83,445861
1114,000000	83,426792
1113,000000	83,428666
1112,000000	83,416172
1111,000000	83,410377
1110,000000	83,381929
1109,000000	83,372006
1108,000000	83,338510
1107,000000	83,323487
1106,000000	83,273513
1105,000000	83,259370
1104,000000	83,220810
1103,000000	83,216901
1102,000000	83,177209
1101,000000	83,138130
1100,000000	83,082243
1099,000000	83,092818
1098,000000	83,075891
1097,000000	83,071297
1096,000000	82,921428
1095,000000	82,892251
1094,000000	82,863352
1093,000000	82,945458
1092,000000	82,906966
1091,000000	82,901892
1090,000000	82,863564
1089,000000	82,745107
1088,000000	82,714139
1087,000000	82,662513
1086,000000	82,611800
1085,000000	82,683158
1084,000000	82,662340
1083,000000	82,655436
1082,000000	82,502929
1081,000000	82,470733
1080,000000	82,454772
1079,000000	82,548117
1078,000000	82,524324
1077,000000	82,486267
1076,000000	82,464645
1075,000000	82,333613
1074,000000	82,301882
1073,000000	82,305557
1072,000000	82,358731
1071,000000	82,354031
1070,000000	82,341657
1069,000000	82,300294
1068,000000	82,154967
1067,000000	82,161456
1066,000000	82,132139
1065,000000	82,156523
1064,000000	82,219926
1063,000000	82,236211
1062,000000	82,177670
1061,000000	82,068131
1060,000000	82,067582
1059,000000	82,098450
1058,000000	82,047766
1057,000000	82,151730
1056,000000	82,119108
1055,000000	82,008241
1054,000000	81,999923
1053,000000	82,001342
1052,000000	82,093525
1051,000000	82,088420
1050,000000	81,956813
1049,000000	81,996849
1048,000000	82,004146
1047,000000	82,086949
1046,000000	81,961869
1045,000000	81,991901
1044,000000	81,996351
1043,000000	82,002692
1042,000000	82,102348
1041,000000	82,009957
1040,000000	81,993892
1039,000000	82,024019
1038,000000	82,098925
1037,000000	82,006677
1036,000000	82,016724
1035,000000	82,081112
1034,000000	82,152800
1033,000000	82,060612
1032,000000	82,119310
1031,000000	82,237676
1030,000000	82,244226
1029,000000	82,164710
1028,000000	82,163325
1027,000000	82,266009
1026,000000	82,158646
1025,000000	82,169201
1024,000000	82,213363
1023,000000	82,318320
1022,000000	82,209130
1021,000000	82,243050
1020,000000	82,246648
1019,000000	82,282217
1018,000000	82,293502
1017,000000	82,289539
1016,000000	82,271557
1015,000000	82,354690
1014,000000	82,416960
1013,000000	82,334477
1012,000000	82,300638
1011,000000	82,235234
1010,000000	82,399200
1009,000000	82,537908
1008,000000	82,503969
1007,000000	82,357920
1006,000000	82,221413
1005,000000	82,278929
1004,000000	82,432358
1003,000000	82,530998
1002,000000	82,367067
1001,000000	82,248051
1000,000000	82,286984
999,000000	82,444923
998,000000	82,517132
997,000000	82,338190
996,000000	82,254686
995,000000	82,371362
994,000000	82,381269
993,000000	82,335380
992,000000	82,221747
991,000000	82,263601
990,000000	82,376803
989,000000	82,339352
988,000000	82,256172
987,000000	82,355987
986,000000	82,345829
985,000000	82,308136
984,000000	82,192599
983,000000	82,260164
982,000000	82,316403
981,000000	82,209066
980,000000	82,181706
979,000000	82,310604
978,000000	82,450332
977,000000	82,530198
976,000000	82,531769
975,000000	82,607055
974,000000	82,639646
973,000000	82,647919
972,000000	82,611798
971,000000	82,573881
970,000000	82,540541
969,000000	82,509591
968,000000	82,476833
967,000000	82,446978
966,000000	82,405913
965,000000	82,385976
964,000000	82,357319
963,000000	82,321251
962,000000	82,298059
961,000000	82,261847
960,000000	82,215388
959,000000	82,198896
958,000000	82,172171
957,000000	82,136119
956,000000	82,098583
955,000000	82,078429
954,000000	82,059107
953,000000	82,018602
952,000000	81,987327
951,000000	81,964210
950,000000	81,927354
949,000000	81,898732
948,000000	81,870319
947,000000	81,852653
946,000000	81,832593
945,000000	81,824078
944,000000	81,806556
943,000000	81,774446
942,000000	81,752946
941,000000	81,740074
940,000000	81,727379
939,000000	81,712934
938,000000	81,695760
937,000000	81,689730
936,000000	81,669238
935,000000	81,666398
934,000000	81,659828
933,000000	81,659680
932,000000	81,665593
931,000000	81,661099
930,000000	81,658712
929,000000	81,645099
928,000000	81,651206
927,000000	81,659845
926,000000	81,681718
925,000000	81,688530
924,000000	81,712408
923,000000	81,739927
922,000000	81,730713
921,000000	81,733292
920,000000	81,744140
919,000000	81,742109
918,000000	81,743946
917,000000	81,755984
916,000000	81,797451
915,000000	81,809187
914,000000	81,807608
913,000000	81,827967
912,000000	81,874685
911,000000	81,896624
910,000000	81,908351
909,000000	81,917452
908,000000	81,939317
907,000000	81,956695
906,000000	81,985797
905,000000	81,972176
904,000000	81,988969
903,000000	82,012237
902,000000	82,042571
901,000000	82,078621
900,000000	82,105489
899,000000	82,110936
898,000000	82,111546
897,000000	82,136669
896,000000	82,150530
895,000000	82,129788
894,000000	82,149979
893,000000	82,139174
892,000000	82,175806
891,000000	82,154969
890,000000	82,180979
889,000000	82,144278
888,000000	82,179660
887,000000	82,203797
886,000000	82,189187
885,000000	82,165106
884,000000	82,161153
883,000000	82,115065
882,000000	82,182093
881,000000	82,166042
880,000000	82,185158
879,000000	82,104695
878,000000	82,094369
877,000000	81,982226
876,000000	81,991246
875,000000	82,002748
874,000000	82,033538
873,000000	81,921408
872,000000	81,881965
871,000000	81,823109
870,000000	81,835362
869,000000	81,827179
868,000000	81,847997
867,000000	81,791402
866,000000	81,813908
865,000000	81,721076
864,000000	81,675876
863,000000	81,641592
862,000000	81,618811
861,000000	82,229090
860,000000	81,492527
859,000000	81,047479
858,000000	81,239096
857,000000	81,528736
856,000000	81,260272
855,000000	81,093947
854,000000	81,393315
853,000000	81,514074
852,000000	81,489088
851,000000	81,626915
850,000000	81,297490
849,000000	81,020661
848,000000	81,200913
847,000000	81,256900
846,000000	81,153162
845,000000	81,350873
844,000000	81,111891
843,000000	80,831277
842,000000	80,955709
841,000000	81,157565
840,000000	80,917677
839,000000	81,066541
838,000000	80,845296
837,000000	80,826178
836,000000	81,166211
835,000000	80,890922
834,000000	80,829864
833,000000	80,722630
832,000000	81,001941
831,000000	80,852779
830,000000	81,072349
829,000000	81,018173
828,000000	81,074600
827,000000	81,100865
826,000000	81,353104
825,000000	81,001639
824,000000	80,970825
823,000000	81,041683
822,000000	81,163844
821,000000	81,278360
820,000000	81,279479
819,000000	81,238855
818,000000	81,127725
817,000000	81,286572
816,000000	81,418206
815,000000	81,647781
814,000000	81,485507
813,000000	81,347077
812,000000	81,151116
811,000000	81,377467
810,000000	81,628362
809,000000	81,525839
808,000000	81,356434
807,000000	81,551943
806,000000	81,547407
805,000000	81,615510
804,000000	81,403173
803,000000	81,512671
802,000000	81,492595
801,000000	81,371198
800,000000	81,547826
799,000000	81,743841
798,000000	81,646779
797,000000	81,602176
796,000000	81,366267
795,000000	81,366521
794,000000	81,584846
793,000000	81,427112
792,000000	81,471088
791,000000	81,371940
790,000000	81,147091
789,000000	81,209969
788,000000	81,154545
787,000000	81,045695
786,000000	81,085663
785,000000	81,047850
784,000000	81,033949
783,000000	80,999438
782,000000	81,085030
781,000000	80,856872
780,000000	81,099636
779,000000	80,826985
778,000000	80,721675
777,000000	80,688638
776,000000	80,801786
775,000000	80,750314
774,000000	80,497167
773,000000	80,702124
772,000000	80,519426
771,000000	80,481170
770,000000	80,475839
769,000000	80,514285
768,000000	80,453581
767,000000	80,398778
766,000000	80,550743
765,000000	80,556413
764,000000	80,446180
763,000000	80,587814
762,000000	80,503731
761,000000	80,458554
760,000000	80,447312
759,000000	80,350130
758,000000	80,542324
757,000000	80,422250
756,000000	80,537962
755,000000	80,504689
754,000000	80,469936
753,000000	80,535631
752,000000	80,718743
751,000000	80,734143
750,000000	80,651791
749,000000	80,634786
748,000000	80,706592
747,000000	80,691484
746,000000	80,775368
745,000000	80,678265
744,000000	80,863174
743,000000	80,849112
742,000000	80,878301
741,000000	80,758978
740,000000	80,832941
739,000000	80,940838
738,000000	80,851242
737,000000	80,872695
736,000000	80,929085
735,000000	81,058835
734,000000	80,874207
733,000000	80,901212
732,000000	80,897260
731,000000	80,763369
730,000000	80,740745
729,000000	80,728190
728,000000	80,697020
727,000000	80,790541
726,000000	80,820809
725,000000	80,718840
724,000000	80,636329
723,000000	80,614274
722,000000	80,595196
721,000000	80,507405
720,000000	80,550590
719,000000	80,530892
718,000000	80,386084
717,000000	80,411400
716,000000	80,381968
715,000000	80,353283
714,000000	80,327129
713,000000	80,122802
712,000000	80,185878
711,000000	80,076056
710,000000	79,958821
709,000000	80,008767
708,000000	80,085938
707,000000	80,014080
706,000000	80,040364
705,000000	80,043106
704,000000	79,951568
703,000000	79,895211
702,000000	79,917662
701,000000	79,941545
700,000000	79,978603
699,000000	79,984330
698,000000	79,984889
697,000000	79,990243
696,000000	80,002142
695,000000	79,973063
694,000000	79,967749
693,000000	80,058544
692,000000	80,106700
691,000000	80,088537
690,000000	80,051053
689,000000	80,020705
688,000000	79,996550
687,000000	80,043521
686,000000	80,085950
685,000000	80,109882
684,000000	80,181574
683,000000	80,201544
682,000000	80,226910
681,000000	80,297451
680,000000	80,280976
679,000000	80,280869
678,000000	80,243202
677,000000	80,248335
676,000000	80,261628
675,000000	80,226078
674,000000	80,193371
673,000000	80,078873
672,000000	80,048321
671,000000	80,056593
670,000000	80,005838
669,000000	79,960425
668,000000	79,881325
667,000000	79,877923
666,000000	79,852650
665,000000	79,787216
664,000000	79,696138
663,000000	79,624472
662,000000	79,588312
661,000000	79,549083
660,000000	79,495981
659,000000	79,406632
658,000000	79,447008
657,000000	79,420171
656,000000	79,358284
655,000000	79,343567
654,000000	79,257171
653,000000	79,205647
652,000000	79,228201
651,000000	79,251255
650,000000	79,309530
649,000000	79,284941
648,000000	79,279461
647,000000	79,283894
646,000000	79,321068
645,000000	79,354470
644,000000	79,333327
643,000000	79,332957
642,000000	79,341115
641,000000	79,431421
640,000000	79,433348
639,000000	79,454551
638,000000	79,544170
637,000000	79,575472
636,000000	79,564070
635,000000	79,559229
634,000000	79,583985
633,000000	79,615401
632,000000	79,606946
631,000000	79,576695
630,000000	79,560561
629,000000	79,566617
628,000000	79,561703
627,000000	79,539955
626,000000	79,509312
625,000000	79,476416
624,000000	79,457220
623,000000	79,401558
622,000000	79,316531
621,000000	79,253461
620,000000	79,204898
619,000000	79,128014
618,000000	79,089494
617,000000	79,029916
616,000000	78,911912
615,000000	78,858188
614,000000	78,823641
613,000000	78,804697
612,000000	78,750336
611,000000	78,667200
610,000000	78,657055
609,000000	78,679995
608,000000	78,628162
607,000000	78,602692
606,000000	78,602627
605,000000	78,605972
604,000000	78,587376
603,000000	78,573062
602,000000	78,603658
601,000000	78,669114
600,000000	78,698237
599,000000	78,739550
598,000000	78,805788
597,000000	78,821901
596,000000	78,841850
595,000000	78,871753
594,000000	78,891961
593,000000	78,911670
592,000000	78,908895
591,000000	78,897990
590,000000	78,842494
589,000000	78,802805
588,000000	78,855466
587,000000	78,838750
586,000000	78,821560
585,000000	78,773844
584,000000	78,749144
583,000000	78,696240
582,000000	78,604294
581,000000	78,533916
580,000000	78,472571
579,000000	78,412114
578,000000	78,389952
577,000000	78,327809
576,000000	78,244631
575,000000	78,195646
574,000000	78,143891
573,000000	78,095072
572,000000	78,096128
571,000000	78,008749
570,000000	78,007729
569,000000	77,989110
568,000000	77,988296
567,000000	77,999371
566,000000	77,969357
565,000000	77,974711
564,000000	77,995766
563,000000	78,015703
562,000000	78,122414
561,000000	78,229290
560,000000	78,272696
559,000000	78,242340
558,000000	78,347002
557,000000	78,352747
556,000000	78,349462
555,000000	78,343225
554,000000	78,338774
553,000000	78,276615
552,000000	78,262024
551,000000	78,221195
550,000000	78,231525
549,000000	78,140744
548,000000	78,094707
547,000000	78,033113
546,000000	77,957268
545,000000	77,883890
544,000000	77,802812
543,000000	77,771338
542,000000	77,774791
541,000000	77,654569
540,000000	77,671493
539,000000	77,591405
538,000000	77,535426
537,000000	77,553685
536,000000	77,539008
535,000000	77,518125
534,000000	77,612777
533,000000	77,650829
532,000000	77,634789
531,000000	77,650142
530,000000	77,655510
529,000000	77,575626
528,000000	77,532421
527,000000	77,540423
526,000000	77,472092
525,000000	77,581044
524,000000	77,559194
523,000000	77,548268
522,000000	77,437944
521,000000	77,405955
520,000000	77,313822
519,000000	77,201499
518,000000	77,152403
517,000000	77,067789
516,000000	76,935834
515,000000	76,807960
514,000000	76,760114
513,000000	76,707306
512,000000	76,630521
511,000000	76,582027
510,000000	76,548501
509,000000	76,530807
508,000000	76,561797
507,000000	76,567975
506,000000	76,554095
505,000000	76,546100
504,000000	76,622915
503,000000	76,591558
502,000000	76,700443
501,000000	76,740881
500,000000	76,752321
499,000000	76,767631
498,000000	76,696109
497,000000	76,711997
496,000000	76,697952
495,000000	76,598892
494,000000	76,701892
493,000000	76,523711
492,000000	76,545051
491,000000	76,448535
490,000000	76,391738
489,000000	76,383441
488,000000	76,268407
487,000000	76,308184
486,000000	76,331522
485,000000	76,375044
484,000000	76,319381
483,000000	76,392980
482,000000	76,418027
481,000000	76,482717
480,000000	76,439480
479,000000	76,479909
478,000000	76,310836
477,000000	76,319680
476,000000	76,254767
475,000000	76,269198
474,000000	76,233030
473,000000	76,079933
472,000000	75,981503
471,000000	75,824961
470,000000	75,778100
469,000000	75,644571
468,000000	75,513785
467,000000	75,431353
466,000000	75,322371
465,000000	75,262771
464,000000	75,197760
463,000000	75,229792
462,000000	75,227138
461,000000	75,206329
460,000000	75,244491
459,000000	75,243481
458,000000	75,245905
457,000000	75,241207
456,000000	75,171758
455,000000	75,105502
454,000000	75,063535
453,000000	74,857544
452,000000	74,782636
451,000000	74,664186
450,000000	74,527892
449,000000	74,522466
448,000000	74,402561
447,000000	74,209207
446,000000	74,203221
445,000000	74,081170
444,000000	74,173275
443,000000	74,141685
442,000000	74,063093
441,000000	73,995663
440,000000	73,824961
439,000000	73,670141
438,000000	73,549479
437,000000	73,223290
436,000000	72,964801
435,000000	72,715459
434,000000	72,403814
433,000000	72,008160
432,000000	71,827942
431,000000	71,514809
430,000000	71,261312
429,000000	70,912291
428,000000	70,468652
427,000000	69,998114
426,000000	69,378841
425,000000	68,645444
424,000000	67,808180
423,000000	66,896498
422,000000	65,897286
421,000000	64,817106
420,000000	63,712896
419,000000	62,566862
418,000000	61,460993
417,000000	60,373643
416,000000	59,262033
415,000000	58,209126
414,000000	57,253302
413,000000	56,417338
412,000000	55,747287
411,000000	55,207808
410,000000	54,691691
409,000000	54,438325
408,000000	54,229123
407,000000	54,092411
406,000000	54,120151
405,000000	54,173042
404,000000	54,292491
403,000000	54,421991
402,000000	54,604098
401,000000	54,793498
400,000000	55,051934
399,000000	55,356388
398,000000	55,610059
397,000000	55,788862
396,000000	56,011068
395,000000	56,245251
394,000000	56,498518
393,000000	56,717079
392,000000	56,944241
391,000000	57,165437
390,000000	57,350416
389,000000	57,526505
388,000000	57,738174
387,000000	57,947778
386,000000	58,175085
385,000000	58,371533
384,000000	58,584071
383,000000	58,781147
382,000000	58,998483
381,000000	59,192048
380,000000	59,447091
379,000000	59,541256
378,000000	59,749947
377,000000	60,415346
376,000000	60,975799
375,000000	61,652990
374,000000	62,074098
373,000000	62,442448
372,000000	63,385322
371,000000	64,286539
370,000000	65,087535
369,000000	65,840119
368,000000	66,684296
367,000000	67,600912
366,000000	68,390988
365,000000	69,221503
364,000000	70,195587
363,000000	71,008137
362,000000	71,455550
361,000000	72,259466
360,000000	73,018999
359,000000	73,397501
358,000000	74,076928
357,000000	74,525612
356,000000	74,991697
355,000000	75,742787
354,000000	76,253277
353,000000	76,904303
352,000000	77,360524
351,000000	78,183143
350,000000	78,675175
349,000000	78,962676
348,000000	79,432638
347,000000	80,259351
346,000000	80,729438
345,000000	80,510585
344,000000	80,707950
343,000000	81,270923
342,000000	81,300497
341,000000	80,633252
340,000000	80,854301
339,000000	81,182492
338,000000	81,117307
337,000000	81,170878
336,000000	80,701432
335,000000	80,432717
334,000000	80,434896
333,000000	80,273792
332,000000	80,092820
331,000000	79,682095
330,000000	79,608701
329,000000	80,184916
328,000000	80,452372
327,000000	80,029571
326,000000	79,610430
325,000000	79,628232
324,000000	79,578994
323,000000	79,889601
322,000000	80,079320
321,000000	79,892984
320,000000	80,133232
319,000000	80,285730
318,000000	80,109883
317,000000	80,076661
316,000000	80,184672
315,000000	80,448218
314,000000	80,553269
313,000000	80,702928
312,000000	80,831163
311,000000	80,747605
310,000000	80,790723
309,000000	80,929565
308,000000	81,481552
307,000000	82,216449
306,000000	82,911789
305,000000	83,383955
304,000000	84,330276
303,000000	84,918914
302,000000	85,020793
301,000000	85,423906
300,000000	85,847280
299,000000	86,220285
298,000000	86,774583
297,000000	87,565740
296,000000	88,193146
295,000000	88,615117
294,000000	89,454567
293,000000	90,275885
292,000000	91,113092
291,000000	91,972923
290,000000	92,867819
289,000000	93,641272
288,000000	94,558407
287,000000	95,363627
286,000000	96,449707
285,000000	97,412055
284,000000	98,187336
283,000000	98,897662
282,000000	99,494524
281,000000	100,083662
280,000000	100,658909
279,000000	101,081335
278,000000	101,382786
277,000000	101,636784
276,000000	101,820364
275,000000	102,169537
274,000000	102,550061
273,000000	102,778789
272,000000	103,086019
271,000000	103,284407
270,000000	103,427341
269,000000	103,580985
268,000000	103,890607
267,000000	104,359167
266,000000	104,927060
265,000000	105,486495
264,000000	106,278971
263,000000	107,282227
262,000000	108,635682
261,000000	109,652469
260,000000	110,667712
259,000000	111,988347
258,000000	113,074276
257,000000	114,246356
256,000000	115,399547
255,000000	116,839843
254,000000	118,450255
253,000000	119,910054
252,000000	121,500640
251,000000	123,641482
250,000000	125,473418
249,000000	127,379636
248,000000	128,895148
247,000000	130,089254
246,000000	131,467471
245,000000	133,178230
244,000000	135,143600
243,000000	137,411438
242,000000	139,605529
241,000000	141,914843
240,000000	144,159334
239,000000	146,483491
238,000000	147,913963
237,000000	151,931701
236,000000	156,058196
235,000000	160,122810
234,000000	164,385442
233,000000	167,613463
232,000000	171,429231
231,000000	174,267186
230,000000	177,507829
229,000000	180,900237
228,000000	184,328713
227,000000	187,733410
226,000000	191,256304
225,000000	194,950850
224,000000	198,729549
223,000000	201,758280
222,000000	204,827396
221,000000	207,928619
220,000000	210,912722
219,000000	213,435038
218,000000	216,300259
217,000000	219,535281
216,000000	222,543418
215,000000	225,645480
214,000000	229,286007
213,000000	232,029916
212,000000	236,421838
211,000000	241,803356
210,000000	246,210988
209,000000	252,050703
208,000000	258,307987
207,000000	266,144706
206,000000	274,035951
205,000000	282,799544
204,000000	293,046693
203,000000	305,548616
202,000000	316,322292
201,000000	331,049869
200,000000	345,663232
