PE UV       SUBTECH     SPECTRUM    ASCII       PEDS        4.00        
   -1
Q1.Sample.asc
22/03/28
13:48:56.00
22/03/28
13:48:56.00
Administrator

200,000000
1
Lambda 1050
1050L1808311
PerkinElmer UV WinLab 6.4.0.973 / 2.02.11 Lambda 900 UV/VIS/NIR, May 23 2018 11:23:04

0
0
3350/servo 860,8/2
0
0
UV/VIS
1
1
1
CommonBeamDepol,RBeamAtt,SBeamAtt,60mm sphere
0
0
0
0
Program
Program
3350/servo 860,8/2
3350/0,2 860,8/0,2
3350/0,2 860,8/0,2
0
1.00
 
 
 
0
 
860,8
319,2
860,8
Front
100
on
S:100 R:100
 
0
0
0
 
0
 
 
 
0
 
 
0
0
0
0
0
 
 
 
 
0
0


0
0
#HDR
-1
-1
#GR
nm
%T
1.0
0.0
2000,000000
-1,000000
1801
8
339,210651
58,321777
#DATA
2000,000000	87,513015
1999,000000	87,474383
1998,000000	87,516462
1997,000000	87,508545
1996,000000	87,447359
1995,000000	87,436192
1994,000000	87,428427
1993,000000	87,402935
1992,000000	87,455854
1991,000000	87,452101
1990,000000	87,408324
1989,000000	87,381081
1988,000000	87,374522
1987,000000	87,358003
1986,000000	87,409718
1985,000000	87,401404
1984,000000	87,402004
1983,000000	87,336145
1982,000000	87,358705
1981,000000	87,370334
1980,000000	87,361046
1979,000000	87,359212
1978,000000	87,327641
1977,000000	87,327693
1976,000000	87,368171
1975,000000	87,364190
1974,000000	87,356201
1973,000000	87,300104
1972,000000	87,260060
1971,000000	87,348020
1970,000000	87,323506
1969,000000	87,324234
1968,000000	87,341322
1967,000000	87,286616
1966,000000	87,275778
1965,000000	87,253459
1964,000000	87,277848
1963,000000	87,307833
1962,000000	87,301490
1961,000000	87,293580
1960,000000	87,286974
1959,000000	87,276301
1958,000000	87,268934
1957,000000	87,281708
1956,000000	87,332679
1955,000000	87,285794
1954,000000	87,280460
1953,000000	87,273131
1952,000000	87,286408
1951,000000	87,326213
1950,000000	87,329375
1949,000000	87,295387
1948,000000	87,335894
1947,000000	87,273576
1946,000000	87,284309
1945,000000	87,289459
1944,000000	87,297370
1943,000000	87,276239
1942,000000	87,310676
1941,000000	87,282147
1940,000000	87,238803
1939,000000	87,248766
1938,000000	87,309052
1937,000000	87,270334
1936,000000	87,294834
1935,000000	87,254299
1934,000000	87,293349
1933,000000	87,229273
1932,000000	87,290926
1931,000000	87,253301
1930,000000	87,246333
1929,000000	87,255315
1928,000000	87,243203
1927,000000	87,269936
1926,000000	87,264375
1925,000000	87,216014
1924,000000	87,266407
1923,000000	87,263199
1922,000000	87,283489
1921,000000	87,242900
1920,000000	87,228575
1919,000000	87,193711
1918,000000	87,150642
1917,000000	87,132409
1916,000000	87,168410
1915,000000	87,113865
1914,000000	87,118959
1913,000000	87,071378
1912,000000	87,041750
1911,000000	86,972526
1910,000000	86,977654
1909,000000	86,948476
1908,000000	86,930104
1907,000000	86,889681
1906,000000	86,881550
1905,000000	86,838697
1904,000000	86,823775
1903,000000	86,780767
1902,000000	86,777887
1901,000000	86,716616
1900,000000	86,708698
1899,000000	86,663032
1898,000000	86,598643
1897,000000	86,557904
1896,000000	86,544041
1895,000000	86,539378
1894,000000	86,518806
1893,000000	86,473063
1892,000000	86,492275
1891,000000	86,448086
1890,000000	86,390782
1889,000000	86,365689
1888,000000	86,376751
1887,000000	86,368201
1886,000000	86,352141
1885,000000	86,310174
1884,000000	86,290123
1883,000000	86,295275
1882,000000	86,277690
1881,000000	86,219808
1880,000000	86,224472
1879,000000	86,194810
1878,000000	86,197958
1877,000000	86,223750
1876,000000	86,198309
1875,000000	86,185414
1874,000000	86,186382
1873,000000	86,127408
1872,000000	86,089175
1871,000000	86,060205
1870,000000	86,054671
1869,000000	86,013979
1868,000000	85,965201
1867,000000	85,908129
1866,000000	85,878281
1865,000000	85,911401
1864,000000	85,919405
1863,000000	85,891275
1862,000000	85,871695
1861,000000	85,895189
1860,000000	85,870401
1859,000000	85,815265
1858,000000	85,804634
1857,000000	85,797312
1856,000000	85,775287
1855,000000	85,788306
1854,000000	85,815379
1853,000000	85,770824
1852,000000	85,753408
1851,000000	85,749788
1850,000000	85,717882
1849,000000	85,689849
1848,000000	85,694287
1847,000000	85,701406
1846,000000	85,698438
1845,000000	85,680252
1844,000000	85,625945
1843,000000	85,616477
1842,000000	85,600444
1841,000000	85,583486
1840,000000	85,567840
1839,000000	85,563840
1838,000000	85,544218
1837,000000	85,525985
1836,000000	85,484416
1835,000000	85,437401
1834,000000	85,404570
1833,000000	85,385973
1832,000000	85,383649
1831,000000	85,366746
1830,000000	85,329629
1829,000000	85,324957
1828,000000	85,308020
1827,000000	85,321475
1826,000000	85,309967
1825,000000	85,274571
1824,000000	85,271761
1823,000000	85,282222
1822,000000	85,262822
1821,000000	85,251766
1820,000000	85,261795
1819,000000	85,248672
1818,000000	85,218442
1817,000000	85,198864
1816,000000	85,180352
1815,000000	85,156690
1814,000000	85,122809
1813,000000	85,113910
1812,000000	85,121711
1811,000000	85,117889
1810,000000	85,094746
1809,000000	85,057901
1808,000000	85,027991
1807,000000	85,034642
1806,000000	85,013530
1805,000000	84,970840
1804,000000	84,978043
1803,000000	84,983454
1802,000000	84,966721
1801,000000	84,958591
1800,000000	84,924601
1799,000000	84,932819
1798,000000	84,932219
1797,000000	84,925905
1796,000000	84,894870
1795,000000	84,900174
1794,000000	84,883021
1793,000000	84,868049
1792,000000	84,846791
1791,000000	84,847766
1790,000000	84,825954
1789,000000	84,824164
1788,000000	84,822089
1787,000000	84,814130
1786,000000	84,780921
1785,000000	84,799009
1784,000000	84,787477
1783,000000	84,799890
1782,000000	84,766959
1781,000000	84,764841
1780,000000	84,739262
1779,000000	84,738876
1778,000000	84,721088
1777,000000	84,712412
1776,000000	84,717587
1775,000000	84,710313
1774,000000	84,711202
1773,000000	84,743825
1772,000000	84,702605
1771,000000	84,691973
1770,000000	84,698864
1769,000000	84,715241
1768,000000	84,713571
1767,000000	84,706221
1766,000000	84,690869
1765,000000	84,709528
1764,000000	84,688792
1763,000000	84,692638
1762,000000	84,695221
1761,000000	84,704252
1760,000000	84,685116
1759,000000	84,692070
1758,000000	84,669279
1757,000000	84,677280
1756,000000	84,686558
1755,000000	84,694617
1754,000000	84,689866
1753,000000	84,684016
1752,000000	84,679225
1751,000000	84,721864
1750,000000	84,694002
1749,000000	84,670724
1748,000000	84,660805
1747,000000	84,673124
1746,000000	84,669166
1745,000000	84,683107
1744,000000	84,660154
1743,000000	84,650646
1742,000000	84,680230
1741,000000	84,680760
1740,000000	84,687102
1739,000000	84,681226
1738,000000	84,669129
1737,000000	84,656564
1736,000000	84,652184
1735,000000	84,653171
1734,000000	84,643435
1733,000000	84,673212
1732,000000	84,683677
1731,000000	84,674692
1730,000000	84,674855
1729,000000	84,674739
1728,000000	84,675472
1727,000000	84,689843
1726,000000	84,666142
1725,000000	84,693135
1724,000000	84,681051
1723,000000	84,685705
1722,000000	84,656447
1721,000000	84,708893
1720,000000	84,684155
1719,000000	84,657435
1718,000000	84,677220
1717,000000	84,664100
1716,000000	84,650784
1715,000000	84,662010
1714,000000	84,620957
1713,000000	84,642027
1712,000000	84,601943
1711,000000	84,628076
1710,000000	84,613188
1709,000000	84,603461
1708,000000	84,593162
1707,000000	84,570111
1706,000000	84,559682
1705,000000	84,549611
1704,000000	84,526156
1703,000000	84,521695
1702,000000	84,504683
1701,000000	84,519558
1700,000000	84,454848
1699,000000	84,480854
1698,000000	84,434801
1697,000000	84,443136
1696,000000	84,431376
1695,000000	84,417061
1694,000000	84,412391
1693,000000	84,397327
1692,000000	84,365015
1691,000000	84,377616
1690,000000	84,362296
1689,000000	84,351377
1688,000000	84,324240
1687,000000	84,318116
1686,000000	84,288470
1685,000000	84,296462
1684,000000	84,264551
1683,000000	84,257481
1682,000000	84,250141
1681,000000	84,264202
1680,000000	84,246702
1679,000000	84,267497
1678,000000	84,253333
1677,000000	84,276321
1676,000000	84,250617
1675,000000	84,289886
1674,000000	84,292016
1673,000000	84,275139
1672,000000	84,261546
1671,000000	84,320825
1670,000000	84,350802
1669,000000	84,351151
1668,000000	84,347180
1667,000000	84,369103
1666,000000	84,379863
1665,000000	84,401665
1664,000000	84,410405
1663,000000	84,437581
1662,000000	84,421151
1661,000000	84,443912
1660,000000	84,452303
1659,000000	84,487604
1658,000000	84,480414
1657,000000	84,519953
1656,000000	84,492017
1655,000000	84,531293
1654,000000	84,519032
1653,000000	84,527966
1652,000000	84,516307
1651,000000	84,513375
1650,000000	84,523594
1649,000000	84,537383
1648,000000	84,499336
1647,000000	84,525261
1646,000000	84,526360
1645,000000	84,524976
1644,000000	84,501601
1643,000000	84,511372
1642,000000	84,510272
1641,000000	84,512064
1640,000000	84,489547
1639,000000	84,504459
1638,000000	84,491305
1637,000000	84,503105
1636,000000	84,510797
1635,000000	84,519610
1634,000000	84,526372
1633,000000	84,549911
1632,000000	84,548321
1631,000000	84,551989
1630,000000	84,547992
1629,000000	84,559822
1628,000000	84,565805
1627,000000	84,569805
1626,000000	84,565169
1625,000000	84,577090
1624,000000	84,577928
1623,000000	84,603158
1622,000000	84,608913
1621,000000	84,630567
1620,000000	84,630567
1619,000000	84,618686
1618,000000	84,608652
1617,000000	84,633038
1616,000000	84,641871
1615,000000	84,634549
1614,000000	84,628084
1613,000000	84,635309
1612,000000	84,634367
1611,000000	84,629114
1610,000000	84,627098
1609,000000	84,626787
1608,000000	84,604398
1607,000000	84,615181
1606,000000	84,607163
1605,000000	84,607594
1604,000000	84,609991
1603,000000	84,626245
1602,000000	84,611543
1601,000000	84,603733
1600,000000	84,592166
1599,000000	84,619509
1598,000000	84,613485
1597,000000	84,623999
1596,000000	84,628649
1595,000000	84,625489
1594,000000	84,616675
1593,000000	84,625039
1592,000000	84,626027
1591,000000	84,623827
1590,000000	84,627790
1589,000000	84,623150
1588,000000	84,608195
1587,000000	84,608147
1586,000000	84,609177
1585,000000	84,596563
1584,000000	84,517044
1583,000000	84,332521
1582,000000	84,062646
1581,000000	83,929630
1580,000000	83,921467
1579,000000	83,914066
1578,000000	83,918845
1577,000000	83,930145
1576,000000	83,978414
1575,000000	84,086951
1574,000000	84,226216
1573,000000	84,332676
1572,000000	84,240391
1571,000000	84,105914
1570,000000	84,107277
1569,000000	84,201680
1568,000000	84,228056
1567,000000	84,096780
1566,000000	84,089737
1565,000000	84,086412
1564,000000	84,178565
1563,000000	84,206024
1562,000000	84,090182
1561,000000	84,070772
1560,000000	84,145579
1559,000000	84,151946
1558,000000	84,017755
1557,000000	84,018043
1556,000000	84,016222
1555,000000	84,004295
1554,000000	84,106949
1553,000000	84,112502
1552,000000	83,979907
1551,000000	83,967032
1550,000000	83,960967
1549,000000	83,971678
1548,000000	83,981517
1547,000000	84,089931
1546,000000	84,181712
1545,000000	84,155776
1544,000000	84,029787
1543,000000	83,914073
1542,000000	83,910553
1541,000000	83,891500
1540,000000	83,879858
1539,000000	83,872663
1538,000000	83,856958
1537,000000	83,858626
1536,000000	83,857119
1535,000000	83,964015
1534,000000	84,052175
1533,000000	84,033033
1532,000000	84,037780
1531,000000	84,029756
1530,000000	83,886896
1529,000000	83,786035
1528,000000	83,772698
1527,000000	83,750728
1526,000000	83,754752
1525,000000	83,756677
1524,000000	83,860182
1523,000000	83,933677
1522,000000	83,912469
1521,000000	83,766965
1520,000000	83,670915
1519,000000	83,671898
1518,000000	83,681686
1517,000000	83,661329
1516,000000	83,775042
1515,000000	83,851883
1514,000000	83,724733
1513,000000	83,623813
1512,000000	83,604964
1511,000000	83,590803
1510,000000	83,716938
1509,000000	83,789770
1508,000000	83,662372
1507,000000	83,567974
1506,000000	83,564907
1505,000000	83,673230
1504,000000	83,743974
1503,000000	83,612811
1502,000000	83,545145
1501,000000	83,521845
1500,000000	83,633025
1499,000000	83,686049
1498,000000	83,541803
1497,000000	83,473410
1496,000000	83,474976
1495,000000	83,471070
1494,000000	83,604856
1493,000000	83,660070
1492,000000	83,649389
1491,000000	83,500014
1490,000000	83,452943
1489,000000	83,432871
1488,000000	83,408517
1487,000000	83,393890
1486,000000	83,403260
1485,000000	83,394526
1484,000000	83,405050
1483,000000	83,527614
1482,000000	83,566548
1481,000000	83,541568
1480,000000	83,523602
1479,000000	83,516776
1478,000000	83,518823
1477,000000	83,518230
1476,000000	83,512833
1475,000000	83,497495
1474,000000	83,506877
1473,000000	83,479419
1472,000000	83,478818
1471,000000	83,461310
1470,000000	83,316287
1469,000000	83,261922
1468,000000	83,254763
1467,000000	83,250195
1466,000000	83,247109
1465,000000	83,239911
1464,000000	83,365543
1463,000000	83,389674
1462,000000	83,263807
1461,000000	83,214802
1460,000000	83,217495
1459,000000	83,202903
1458,000000	83,348226
1457,000000	83,381470
1456,000000	83,379152
1455,000000	83,233796
1454,000000	83,192911
1453,000000	83,165212
1452,000000	83,185624
1451,000000	83,184780
1450,000000	83,170154
1449,000000	83,162555
1448,000000	83,292201
1447,000000	83,305759
1446,000000	83,306777
1445,000000	83,288783
1444,000000	83,287834
1443,000000	83,302354
1442,000000	83,294541
1441,000000	83,140119
1440,000000	83,115513
1439,000000	83,079523
1438,000000	83,102234
1437,000000	83,087193
1436,000000	83,109149
1435,000000	83,085910
1434,000000	83,093248
1433,000000	83,080243
1432,000000	83,083168
1431,000000	83,062595
1430,000000	83,072443
1429,000000	83,047775
1428,000000	83,084083
1427,000000	83,059153
1426,000000	83,070431
1425,000000	83,054569
1424,000000	83,071359
1423,000000	83,065286
1422,000000	83,065013
1421,000000	83,200894
1420,000000	83,206933
1419,000000	83,069728
1418,000000	83,068950
1417,000000	83,039957
1416,000000	83,018518
1415,000000	83,019652
1414,000000	83,034931
1413,000000	83,148482
1412,000000	83,006443
1411,000000	82,838290
1410,000000	83,005371
1409,000000	83,000200
1408,000000	82,996242
1407,000000	83,160675
1406,000000	82,997259
1405,000000	82,951465
1404,000000	82,928805
1403,000000	82,730904
1402,000000	82,917660
1401,000000	82,900712
1400,000000	82,934408
1399,000000	82,918238
1398,000000	82,950206
1397,000000	82,943585
1396,000000	82,951887
1395,000000	82,954409
1394,000000	82,966273
1393,000000	82,936172
1392,000000	82,937718
1391,000000	82,901488
1390,000000	82,914808
1389,000000	82,875836
1388,000000	82,892405
1387,000000	82,869708
1386,000000	82,887284
1385,000000	82,870461
1384,000000	82,884978
1383,000000	82,899404
1382,000000	82,895737
1381,000000	82,868894
1380,000000	82,918390
1379,000000	82,914575
1378,000000	82,907863
1377,000000	82,915454
1376,000000	82,785451
1375,000000	82,918232
1374,000000	82,915079
1373,000000	82,719425
1372,000000	82,724384
1371,000000	82,711548
1370,000000	82,720666
1369,000000	82,692967
1368,000000	82,685376
1367,000000	82,669851
1366,000000	82,681406
1365,000000	82,640467
1364,000000	82,626114
1363,000000	82,602573
1362,000000	82,634874
1361,000000	82,801437
1360,000000	82,784825
1359,000000	82,767016
1358,000000	82,766056
1357,000000	82,917927
1356,000000	82,732649
1355,000000	82,718065
1354,000000	82,727195
1353,000000	82,741847
1352,000000	82,750216
1351,000000	82,756453
1350,000000	82,853922
1349,000000	82,732526
1348,000000	82,796275
1347,000000	82,768185
1346,000000	82,779575
1345,000000	82,783008
1344,000000	82,906767
1343,000000	82,873174
1342,000000	82,766046
1341,000000	82,813456
1340,000000	82,950688
1339,000000	82,920612
1338,000000	82,844956
1337,000000	82,918924
1336,000000	82,828369
1335,000000	82,813723
1334,000000	82,841335
1333,000000	82,924979
1332,000000	82,933599
1331,000000	82,933811
1330,000000	82,957963
1329,000000	82,944132
1328,000000	82,925252
1327,000000	82,887299
1326,000000	82,921573
1325,000000	82,915503
1324,000000	82,907893
1323,000000	82,876718
1322,000000	82,885229
1321,000000	82,879439
1320,000000	82,877758
1319,000000	82,869445
1318,000000	82,850877
1317,000000	82,762055
1316,000000	82,765803
1315,000000	82,775309
1314,000000	82,795861
1313,000000	82,842262
1312,000000	82,838272
1311,000000	82,807340
1310,000000	82,794523
1309,000000	82,752867
1308,000000	82,656990
1307,000000	82,659271
1306,000000	82,652924
1305,000000	82,621872
1304,000000	82,607211
1303,000000	82,597893
1302,000000	82,613508
1301,000000	82,595051
1300,000000	82,615318
1299,000000	82,661231
1298,000000	82,652673
1297,000000	82,642986
1296,000000	82,600509
1295,000000	82,520483
1294,000000	82,554182
1293,000000	82,622014
1292,000000	82,620398
1291,000000	82,571042
1290,000000	82,489815
1289,000000	82,518789
1288,000000	82,573500
1287,000000	82,552589
1286,000000	82,564784
1285,000000	82,518317
1284,000000	82,424891
1283,000000	82,416953
1282,000000	82,409685
1281,000000	82,426390
1280,000000	82,483541
1279,000000	82,471975
1278,000000	82,472128
1277,000000	82,455945
1276,000000	82,454914
1275,000000	82,445120
1274,000000	82,432162
1273,000000	82,424841
1272,000000	82,414557
1271,000000	82,367417
1270,000000	82,338744
1269,000000	82,323334
1268,000000	82,274208
1267,000000	82,216936
1266,000000	82,197568
1265,000000	82,178636
1264,000000	82,161168
1263,000000	82,152229
1262,000000	82,165723
1261,000000	82,147537
1260,000000	82,136068
1259,000000	82,116614
1258,000000	82,110654
1257,000000	82,108847
1256,000000	82,087672
1255,000000	82,065864
1254,000000	82,048900
1253,000000	82,016202
1252,000000	82,010862
1251,000000	82,011794
1250,000000	82,032839
1249,000000	82,069680
1248,000000	82,073255
1247,000000	82,011950
1246,000000	81,949301
1245,000000	81,942613
1244,000000	81,926019
1243,000000	81,947644
1242,000000	81,988785
1241,000000	82,008490
1240,000000	82,020262
1239,000000	82,012633
1238,000000	81,997652
1237,000000	81,985982
1236,000000	81,980829
1235,000000	81,985289
1234,000000	81,975200
1233,000000	81,947026
1232,000000	81,926823
1231,000000	81,898846
1230,000000	81,846620
1229,000000	81,818757
1228,000000	81,820603
1227,000000	81,862764
1226,000000	81,875207
1225,000000	81,890372
1224,000000	81,904751
1223,000000	81,842510
1222,000000	81,796118
1221,000000	81,793654
1220,000000	81,780109
1219,000000	81,768498
1218,000000	81,764325
1217,000000	81,763467
1216,000000	81,747711
1215,000000	81,740384
1214,000000	81,739365
1213,000000	81,747851
1212,000000	81,739474
1211,000000	81,789242
1210,000000	81,833735
1209,000000	81,838708
1208,000000	81,775997
1207,000000	81,737519
1206,000000	81,791394
1205,000000	81,832642
1204,000000	81,783720
1203,000000	81,765049
1202,000000	81,808319
1201,000000	81,838040
1200,000000	81,832269
1199,000000	81,845862
1198,000000	81,801257
1197,000000	81,789169
1196,000000	81,787005
1195,000000	81,794929
1194,000000	81,787651
1193,000000	81,796503
1192,000000	81,788931
1191,000000	81,814754
1190,000000	81,820852
1189,000000	81,803831
1188,000000	81,798465
1187,000000	81,827525
1186,000000	81,817020
1185,000000	81,810404
1184,000000	81,804071
1183,000000	81,805885
1182,000000	81,810488
1181,000000	81,841417
1180,000000	81,835372
1179,000000	81,836629
1178,000000	81,843052
1177,000000	81,856216
1176,000000	81,861117
1175,000000	81,872826
1174,000000	81,861893
1173,000000	81,865925
1172,000000	81,868134
1171,000000	81,870537
1170,000000	81,854894
1169,000000	81,871582
1168,000000	81,838394
1167,000000	81,895566
1166,000000	81,922746
1165,000000	81,934257
1164,000000	81,909905
1163,000000	81,930022
1162,000000	81,930225
1161,000000	81,911321
1160,000000	81,934933
1159,000000	81,922812
1158,000000	81,836550
1157,000000	81,810387
1156,000000	81,814314
1155,000000	81,908172
1154,000000	81,913496
1153,000000	81,916330
1152,000000	81,901773
1151,000000	81,912221
1150,000000	81,908111
1149,000000	81,903112
1148,000000	81,824632
1147,000000	81,803511
1146,000000	81,774611
1145,000000	81,874514
1144,000000	81,863596
1143,000000	81,866128
1142,000000	81,861209
1141,000000	81,874042
1140,000000	81,861553
1139,000000	81,847369
1138,000000	81,836788
1137,000000	81,837489
1136,000000	81,749280
1135,000000	81,744712
1134,000000	81,721098
1133,000000	81,799706
1132,000000	81,795990
1131,000000	81,806778
1130,000000	81,804177
1129,000000	81,796506
1128,000000	81,766537
1127,000000	81,677470
1126,000000	81,638487
1125,000000	81,642921
1124,000000	81,625231
1123,000000	81,692370
1122,000000	81,683661
1121,000000	81,685067
1120,000000	81,666934
1119,000000	81,694017
1118,000000	81,666809
1117,000000	81,658513
1116,000000	81,624234
1115,000000	81,589270
1114,000000	81,557804
1113,000000	81,546257
1112,000000	81,527715
1111,000000	81,545543
1110,000000	81,522054
1109,000000	81,509427
1108,000000	81,496190
1107,000000	81,472320
1106,000000	81,436283
1105,000000	81,439339
1104,000000	81,418772
1103,000000	81,411371
1102,000000	81,389003
1101,000000	81,353766
1100,000000	81,319505
1099,000000	81,328387
1098,000000	81,310851
1097,000000	81,304158
1096,000000	81,169483
1095,000000	81,167057
1094,000000	81,159580
1093,000000	81,265329
1092,000000	81,225680
1091,000000	81,220573
1090,000000	81,193726
1089,000000	81,110558
1088,000000	81,079456
1087,000000	81,037164
1086,000000	81,078488
1085,000000	81,127927
1084,000000	81,101850
1083,000000	81,100913
1082,000000	81,000290
1081,000000	80,985542
1080,000000	80,953455
1079,000000	81,063166
1078,000000	81,059137
1077,000000	81,028892
1076,000000	81,002686
1075,000000	80,907630
1074,000000	80,866219
1073,000000	80,894042
1072,000000	80,980850
1071,000000	80,991748
1070,000000	80,958513
1069,000000	80,976465
1068,000000	80,838438
1067,000000	80,846819
1066,000000	80,821726
1065,000000	80,903729
1064,000000	80,898719
1063,000000	80,929787
1062,000000	80,891490
1061,000000	80,822785
1060,000000	80,825366
1059,000000	80,846320
1058,000000	80,906993
1057,000000	80,932023
1056,000000	80,894375
1055,000000	80,796172
1054,000000	80,802130
1053,000000	80,789425
1052,000000	80,887182
1051,000000	80,874637
1050,000000	80,765358
1049,000000	80,815460
1048,000000	80,913243
1047,000000	80,919603
1046,000000	80,788809
1045,000000	80,798191
1044,000000	80,803862
1043,000000	80,915043
1042,000000	80,893539
1041,000000	80,799442
1040,000000	80,809291
1039,000000	80,909061
1038,000000	80,881796
1037,000000	80,795088
1036,000000	80,800356
1035,000000	80,940050
1034,000000	80,910015
1033,000000	80,805061
1032,000000	80,839965
1031,000000	80,962871
1030,000000	80,939416
1029,000000	80,828727
1028,000000	80,849860
1027,000000	80,942675
1026,000000	80,834196
1025,000000	80,868930
1024,000000	80,976185
1023,000000	80,962615
1022,000000	80,837620
1021,000000	80,841912
1020,000000	80,823095
1019,000000	80,887022
1018,000000	80,982164
1017,000000	80,960474
1016,000000	80,817872
1015,000000	80,870382
1014,000000	80,959032
1013,000000	80,839422
1012,000000	80,815932
1011,000000	80,802841
1010,000000	80,820003
1009,000000	80,841690
1008,000000	80,950248
1007,000000	80,929926
1006,000000	80,792549
1005,000000	80,797894
1004,000000	80,787566
1003,000000	80,782131
1002,000000	80,757861
1001,000000	80,768764
1000,000000	80,754309
999,000000	80,788509
998,000000	80,828361
997,000000	80,706476
996,000000	80,707136
995,000000	80,699748
994,000000	80,689494
993,000000	80,688907
992,000000	80,684940
991,000000	80,671004
990,000000	80,649406
989,000000	80,650434
988,000000	80,629065
987,000000	80,587341
986,000000	80,580442
985,000000	80,602474
984,000000	80,620109
983,000000	80,632283
982,000000	80,564666
981,000000	80,505796
980,000000	80,604693
979,000000	80,730357
978,000000	80,790219
977,000000	80,810032
976,000000	80,849586
975,000000	80,856835
974,000000	80,842771
973,000000	80,813264
972,000000	80,779534
971,000000	80,767586
970,000000	80,756113
969,000000	80,720214
968,000000	80,691673
967,000000	80,688017
966,000000	80,650856
965,000000	80,645388
964,000000	80,642882
963,000000	80,637877
962,000000	80,637015
961,000000	80,613617
960,000000	80,587507
959,000000	80,577149
958,000000	80,551262
957,000000	80,546594
956,000000	80,532101
955,000000	80,535019
954,000000	80,528455
953,000000	80,517180
952,000000	80,494704
951,000000	80,473161
950,000000	80,457947
949,000000	80,446694
948,000000	80,445183
947,000000	80,455203
946,000000	80,426837
945,000000	80,418791
944,000000	80,420878
943,000000	80,393109
942,000000	80,374920
941,000000	80,382865
940,000000	80,390527
939,000000	80,411260
938,000000	80,395361
937,000000	80,395526
936,000000	80,401758
935,000000	80,400639
934,000000	80,397714
933,000000	80,388380
932,000000	80,392323
931,000000	80,394566
930,000000	80,406887
929,000000	80,396637
928,000000	80,405237
927,000000	80,421953
926,000000	80,429667
925,000000	80,429154
924,000000	80,437771
923,000000	80,433762
922,000000	80,414612
921,000000	80,429346
920,000000	80,443312
919,000000	80,447743
918,000000	80,433629
917,000000	80,429531
916,000000	80,469055
915,000000	80,461256
914,000000	80,464202
913,000000	80,465539
912,000000	80,490648
911,000000	80,501863
910,000000	80,501517
909,000000	80,490388
908,000000	80,500038
907,000000	80,527829
906,000000	80,528415
905,000000	80,485002
904,000000	80,477942
903,000000	80,520139
902,000000	80,543429
901,000000	80,496217
900,000000	80,486030
899,000000	80,493986
898,000000	80,475840
897,000000	80,469524
896,000000	80,504289
895,000000	80,509303
894,000000	80,499848
893,000000	80,470026
892,000000	80,492109
891,000000	80,451084
890,000000	80,423394
889,000000	80,425222
888,000000	80,449270
887,000000	80,409239
886,000000	80,412612
885,000000	80,386781
884,000000	80,378676
883,000000	80,306292
882,000000	80,390129
881,000000	80,355310
880,000000	80,363158
879,000000	80,318952
878,000000	80,307935
877,000000	80,210431
876,000000	80,232409
875,000000	80,192768
874,000000	80,270251
873,000000	80,178885
872,000000	80,163318
871,000000	80,090865
870,000000	80,098832
869,000000	80,127346
868,000000	80,093913
867,000000	80,067943
866,000000	80,062571
865,000000	80,017375
864,000000	80,034088
863,000000	80,000313
862,000000	80,009312
861,000000	80,385196
860,000000	78,887935
859,000000	78,612484
858,000000	78,899583
857,000000	79,255952
856,000000	78,966241
855,000000	78,974872
854,000000	78,846972
853,000000	79,574938
852,000000	79,209483
851,000000	78,953286
850,000000	79,088607
849,000000	78,845105
848,000000	79,120603
847,000000	78,730655
846,000000	78,768827
845,000000	78,952807
844,000000	78,727070
843,000000	78,676802
842,000000	78,753051
841,000000	78,866283
840,000000	78,970117
839,000000	79,037540
838,000000	78,824209
837,000000	78,763781
836,000000	79,090806
835,000000	78,821639
834,000000	78,816373
833,000000	78,717168
832,000000	78,938947
831,000000	79,047000
830,000000	78,955018
829,000000	78,925003
828,000000	78,958540
827,000000	78,877207
826,000000	79,046459
825,000000	78,834277
824,000000	78,856716
823,000000	78,946544
822,000000	79,233809
821,000000	79,292661
820,000000	79,189169
819,000000	78,984023
818,000000	78,947253
817,000000	78,831090
816,000000	79,137905
815,000000	79,167627
814,000000	79,042250
813,000000	79,098977
812,000000	78,894075
811,000000	78,991252
810,000000	79,131910
809,000000	79,082466
808,000000	79,076368
807,000000	79,199439
806,000000	79,043816
805,000000	79,107204
804,000000	78,965476
803,000000	79,043319
802,000000	78,986958
801,000000	78,918989
800,000000	79,013849
799,000000	79,130733
798,000000	79,116898
797,000000	79,266414
796,000000	79,049630
795,000000	78,965926
794,000000	79,023468
793,000000	78,919235
792,000000	79,021114
791,000000	78,902173
790,000000	78,846224
789,000000	78,810981
788,000000	78,755069
787,000000	78,800783
786,000000	78,676189
785,000000	78,707772
784,000000	78,802969
783,000000	78,594687
782,000000	78,679512
781,000000	78,541198
780,000000	78,939769
779,000000	78,392327
778,000000	78,595426
777,000000	78,310096
776,000000	78,612631
775,000000	78,476910
774,000000	78,470787
773,000000	78,596162
772,000000	78,500290
771,000000	78,575214
770,000000	78,402572
769,000000	78,471216
768,000000	78,502052
767,000000	78,475408
766,000000	78,645813
765,000000	78,556495
764,000000	78,533701
763,000000	78,550284
762,000000	78,649579
761,000000	78,423077
760,000000	78,400721
759,000000	78,519197
758,000000	78,463931
757,000000	78,471455
756,000000	78,550614
755,000000	78,621245
754,000000	78,612609
753,000000	78,535078
752,000000	78,675432
751,000000	78,566226
750,000000	78,624121
749,000000	78,598295
748,000000	78,612543
747,000000	78,661330
746,000000	78,670747
745,000000	78,619337
744,000000	78,655048
743,000000	78,613696
742,000000	78,692294
741,000000	78,651154
740,000000	78,692589
739,000000	78,726991
738,000000	78,680440
737,000000	78,587459
736,000000	78,514042
735,000000	78,672372
734,000000	78,552492
733,000000	78,498893
732,000000	78,538869
731,000000	78,548501
730,000000	78,477960
729,000000	78,481230
728,000000	78,507572
727,000000	78,484122
726,000000	78,523715
725,000000	78,480654
724,000000	78,444353
723,000000	78,438019
722,000000	78,431997
721,000000	78,353392
720,000000	78,383027
719,000000	78,383783
718,000000	78,300303
717,000000	78,322741
716,000000	78,212365
715,000000	78,219036
714,000000	78,271013
713,000000	78,159975
712,000000	78,125105
711,000000	78,065999
710,000000	78,057996
709,000000	77,954817
708,000000	78,030182
707,000000	78,000269
706,000000	78,041111
705,000000	78,048894
704,000000	78,050059
703,000000	78,054809
702,000000	78,027248
701,000000	78,055641
700,000000	78,088338
699,000000	78,109925
698,000000	78,048959
697,000000	78,046611
696,000000	78,117339
695,000000	78,086171
694,000000	77,998689
693,000000	78,071987
692,000000	78,052237
691,000000	78,098145
690,000000	78,033826
689,000000	78,047317
688,000000	78,009351
687,000000	78,020829
686,000000	78,082180
685,000000	78,048892
684,000000	78,097565
683,000000	78,018915
682,000000	78,024754
681,000000	78,046774
680,000000	78,085343
679,000000	78,125903
678,000000	78,003726
677,000000	77,956447
676,000000	77,973698
675,000000	77,960529
674,000000	77,915873
673,000000	77,848593
672,000000	77,828138
671,000000	77,817084
670,000000	77,753716
669,000000	77,716627
668,000000	77,683231
667,000000	77,677398
666,000000	77,668119
665,000000	77,589210
664,000000	77,557715
663,000000	77,544039
662,000000	77,539494
661,000000	77,523035
660,000000	77,515503
659,000000	77,486774
658,000000	77,449112
657,000000	77,447017
656,000000	77,428016
655,000000	77,408859
654,000000	77,452881
653,000000	77,423586
652,000000	77,422630
651,000000	77,494751
650,000000	77,515948
649,000000	77,473924
648,000000	77,454248
647,000000	77,484452
646,000000	77,495989
645,000000	77,502401
644,000000	77,495311
643,000000	77,479818
642,000000	77,507958
641,000000	77,560063
640,000000	77,546096
639,000000	77,522916
638,000000	77,542179
637,000000	77,540761
636,000000	77,542125
635,000000	77,557426
634,000000	77,564678
633,000000	77,532836
632,000000	77,515444
631,000000	77,443237
630,000000	77,376336
629,000000	77,393565
628,000000	77,398136
627,000000	77,364678
626,000000	77,330918
625,000000	77,327091
624,000000	77,329960
623,000000	77,294864
622,000000	77,212672
621,000000	77,183647
620,000000	77,158960
619,000000	77,111807
618,000000	77,074586
617,000000	77,051377
616,000000	76,998191
615,000000	76,955333
614,000000	76,982919
613,000000	76,971318
612,000000	76,912548
611,000000	76,904251
610,000000	76,886447
609,000000	76,896509
608,000000	76,892099
607,000000	76,893697
606,000000	76,873295
605,000000	76,918683
604,000000	76,927825
603,000000	76,891157
602,000000	76,891856
601,000000	76,967780
600,000000	76,939564
599,000000	76,938386
598,000000	76,955744
597,000000	76,938561
596,000000	76,962972
595,000000	76,964424
594,000000	76,943522
593,000000	76,917836
592,000000	76,869916
591,000000	76,884476
590,000000	76,863232
589,000000	76,823045
588,000000	76,843005
587,000000	76,809529
586,000000	76,784702
585,000000	76,701601
584,000000	76,726807
583,000000	76,682606
582,000000	76,652902
581,000000	76,605765
580,000000	76,540514
579,000000	76,477226
578,000000	76,510881
577,000000	76,482258
576,000000	76,414449
575,000000	76,364359
574,000000	76,320971
573,000000	76,321344
572,000000	76,392634
571,000000	76,389121
570,000000	76,401884
569,000000	76,382231
568,000000	76,392432
567,000000	76,396653
566,000000	76,299462
565,000000	76,352513
564,000000	76,337132
563,000000	76,305813
562,000000	76,447686
561,000000	76,526203
560,000000	76,506282
559,000000	76,477515
558,000000	76,510487
557,000000	76,462586
556,000000	76,452772
555,000000	76,445674
554,000000	76,428320
553,000000	76,391633
552,000000	76,315777
551,000000	76,286465
550,000000	76,307500
549,000000	76,255254
548,000000	76,223802
547,000000	76,168171
546,000000	76,131642
545,000000	76,119147
544,000000	76,087580
543,000000	76,096364
542,000000	76,140090
541,000000	76,067285
540,000000	76,103147
539,000000	76,049470
538,000000	76,067083
537,000000	76,087597
536,000000	76,099373
535,000000	76,089034
534,000000	76,209598
533,000000	76,168530
532,000000	76,165813
531,000000	76,178463
530,000000	76,143924
529,000000	76,067514
528,000000	76,024547
527,000000	75,972781
526,000000	75,923290
525,000000	76,006757
524,000000	75,978673
523,000000	76,001481
522,000000	75,929216
521,000000	75,869116
520,000000	75,811280
519,000000	75,731294
518,000000	75,721329
517,000000	75,673377
516,000000	75,558089
515,000000	75,517272
514,000000	75,486725
513,000000	75,444178
512,000000	75,453941
511,000000	75,374655
510,000000	75,356840
509,000000	75,315181
508,000000	75,284996
507,000000	75,303172
506,000000	75,311070
505,000000	75,261558
504,000000	75,274171
503,000000	75,230799
502,000000	75,262723
501,000000	75,206668
500,000000	75,202063
499,000000	75,145675
498,000000	75,109316
497,000000	75,096094
496,000000	75,041458
495,000000	75,013430
494,000000	75,029089
493,000000	74,950910
492,000000	74,936119
491,000000	74,888458
490,000000	74,898804
489,000000	74,987786
488,000000	74,875802
487,000000	74,910202
486,000000	74,923923
485,000000	74,990943
484,000000	74,976997
483,000000	75,017517
482,000000	75,043501
481,000000	75,070091
480,000000	74,968765
479,000000	75,000125
478,000000	74,841702
477,000000	74,832710
476,000000	74,837975
475,000000	74,768536
474,000000	74,721701
473,000000	74,603889
472,000000	74,572989
471,000000	74,477955
470,000000	74,465814
469,000000	74,378188
468,000000	74,311872
467,000000	74,264112
466,000000	74,131907
465,000000	74,075483
464,000000	74,074003
463,000000	74,030812
462,000000	74,066546
461,000000	73,980534
460,000000	73,974600
459,000000	73,990501
458,000000	73,952360
457,000000	73,873845
456,000000	73,809967
455,000000	73,733145
454,000000	73,633789
453,000000	73,560594
452,000000	73,457901
451,000000	73,423385
450,000000	73,387707
449,000000	73,392918
448,000000	73,329042
447,000000	73,239079
446,000000	73,122108
445,000000	73,107457
444,000000	73,214776
443,000000	73,137592
442,000000	73,126012
441,000000	72,935569
440,000000	72,835501
439,000000	72,640320
438,000000	72,523885
437,000000	72,274414
436,000000	72,088437
435,000000	71,893958
434,000000	71,747601
433,000000	71,499929
432,000000	71,337008
431,000000	71,107903
430,000000	70,840497
429,000000	70,573283
428,000000	70,128228
427,000000	69,657678
426,000000	69,141934
425,000000	68,582231
424,000000	67,865035
423,000000	67,166538
422,000000	66,465855
421,000000	65,670856
420,000000	64,739332
419,000000	63,940999
418,000000	63,139247
417,000000	62,347482
416,000000	61,556319
415,000000	60,821012
414,000000	60,151954
413,000000	59,645724
412,000000	59,168886
411,000000	58,865352
410,000000	58,555225
409,000000	58,420671
408,000000	58,321777
407,000000	58,379743
406,000000	58,500299
405,000000	58,606187
404,000000	58,732482
403,000000	58,922657
402,000000	59,180124
401,000000	59,386926
400,000000	59,702226
399,000000	59,969599
398,000000	60,284084
397,000000	60,489586
396,000000	60,707988
395,000000	60,976141
394,000000	61,250986
393,000000	61,546668
392,000000	61,653228
391,000000	61,962231
390,000000	62,201866
389,000000	62,439238
388,000000	62,679056
387,000000	62,885685
386,000000	63,080427
385,000000	63,254979
384,000000	63,517021
383,000000	63,734807
382,000000	64,019742
381,000000	64,307666
380,000000	64,522318
379,000000	65,339597
378,000000	66,705019
377,000000	67,289321
376,000000	67,645646
375,000000	68,173599
374,000000	68,623718
373,000000	68,883904
372,000000	69,839320
371,000000	70,691877
370,000000	71,573335
369,000000	72,187920
368,000000	73,035696
367,000000	74,036625
366,000000	74,880068
365,000000	75,969986
364,000000	76,798224
363,000000	77,465744
362,000000	78,142105
361,000000	78,770579
360,000000	79,223635
359,000000	79,641776
358,000000	80,403138
357,000000	80,988991
356,000000	81,599028
355,000000	82,042022
354,000000	82,683157
353,000000	83,663378
352,000000	84,023390
351,000000	84,495274
350,000000	85,023389
349,000000	85,545919
348,000000	86,175915
347,000000	86,353546
346,000000	86,395305
345,000000	86,847673
344,000000	87,274664
343,000000	87,832981
342,000000	87,757140
341,000000	86,880279
340,000000	86,971418
339,000000	87,540489
338,000000	87,475019
337,000000	87,449290
336,000000	87,271396
335,000000	87,203137
334,000000	86,953219
333,000000	86,725609
332,000000	86,940095
331,000000	86,926634
330,000000	86,606159
329,000000	86,735127
328,000000	87,105722
327,000000	86,696152
326,000000	86,328966
325,000000	86,200215
324,000000	85,965663
323,000000	87,117697
322,000000	87,586283
321,000000	86,653712
320,000000	86,638677
319,000000	86,356693
318,000000	85,941599
317,000000	86,061267
316,000000	86,224584
315,000000	86,457744
314,000000	86,523388
313,000000	86,625226
312,000000	86,919673
311,000000	86,970746
310,000000	86,990365
309,000000	87,079539
308,000000	87,472530
307,000000	88,129484
306,000000	89,019041
305,000000	89,532766
304,000000	90,341588
303,000000	90,876708
302,000000	91,105728
301,000000	91,425614
300,000000	91,795528
299,000000	92,201004
298,000000	92,733594
297,000000	93,247948
296,000000	93,812703
295,000000	94,418835
294,000000	95,167975
293,000000	95,765472
292,000000	96,423288
291,000000	97,099743
290,000000	97,892190
289,000000	98,634367
288,000000	99,460535
287,000000	99,961197
286,000000	100,786530
285,000000	101,509791
284,000000	102,196412
283,000000	102,686715
282,000000	103,129858
281,000000	103,709526
280,000000	104,133524
279,000000	104,306338
278,000000	104,533003
277,000000	104,606841
276,000000	104,805241
275,000000	105,187848
274,000000	105,430800
273,000000	105,598371
272,000000	105,739657
271,000000	106,066786
270,000000	106,267271
269,000000	106,357577
268,000000	106,870083
267,000000	107,352941
266,000000	107,871596
265,000000	108,514238
264,000000	109,386328
263,000000	110,608239
262,000000	111,781074
261,000000	112,882240
260,000000	114,084084
259,000000	115,393150
258,000000	116,512980
257,000000	117,749975
256,000000	119,076510
255,000000	120,589090
254,000000	121,982234
253,000000	123,493304
252,000000	124,997839
251,000000	126,904561
250,000000	128,648711
249,000000	130,655474
248,000000	131,874352
247,000000	133,098106
246,000000	134,546267
245,000000	136,273207
244,000000	137,897205
243,000000	139,864040
242,000000	141,934388
241,000000	144,077142
240,000000	146,218298
239,000000	147,365858
238,000000	150,802826
237,000000	153,932118
236,000000	157,657305
235,000000	161,331414
234,000000	165,200147
233,000000	168,453066
232,000000	171,460905
231,000000	174,876684
230,000000	177,446359
229,000000	180,763003
228,000000	184,113248
227,000000	187,078106
226,000000	190,721773
225,000000	194,225257
224,000000	197,432034
223,000000	200,597623
222,000000	203,708162
221,000000	206,319483
220,000000	209,350374
219,000000	212,015417
218,000000	214,926069
217,000000	218,488487
216,000000	221,466460
215,000000	224,502238
214,000000	227,862165
213,000000	230,975885
212,000000	235,167532
211,000000	239,719547
210,000000	244,271060
209,000000	249,640861
208,000000	255,994728
207,000000	263,221103
206,000000	271,210776
205,000000	279,189919
204,000000	288,519548
203,000000	300,949517
202,000000	311,825899
201,000000	325,414079
200,000000	339,210651
