PE UV       SUBTECH     SPECTRUM    ASCII       PEDS        4.00        
   -1
q1dot.Sample.asc
22/03/28
14:59:08.00
22/03/28
14:59:08.00
Administrator

200,000000
1
Lambda 1050
1050L1808311
PerkinElmer UV WinLab 6.4.0.973 / 2.02.11 Lambda 900 UV/VIS/NIR, May 23 2018 11:23:04

0
0
3350/servo 860,8/2
0
0
UV/VIS
1
1
1
CommonBeamDepol,RBeamAtt,SBeamAtt,60mm sphere
0
0
0
0
Program
Program
3350/servo 860,8/2
3350/0,2 860,8/0,2
3350/0,2 860,8/0,2
0
1.00
 
 
 
0
 
860,8
319,2
860,8
Front
100
on
S:100 R:100
 
0
0
0
 
0
 
 
 
0
 
 
0
0
0
0
0
 
 
 
 
0
0


0
0
#HDR
-1
-1
#GR
nm
%T
1.0
0.0
2000,000000
-1,000000
1801
8
292,472976
61,384516
#DATA
2000,000000	93,447737
1999,000000	93,374128
1998,000000	93,469236
1997,000000	93,391204
1996,000000	93,398983
1995,000000	93,415699
1994,000000	93,401555
1993,000000	93,408681
1992,000000	93,489028
1991,000000	93,450307
1990,000000	93,478183
1989,000000	93,478143
1988,000000	93,532155
1987,000000	93,487008
1986,000000	93,472589
1985,000000	93,507348
1984,000000	93,513486
1983,000000	93,504090
1982,000000	93,530261
1981,000000	93,546069
1980,000000	93,599550
1979,000000	93,618193
1978,000000	93,606585
1977,000000	93,625380
1976,000000	93,685170
1975,000000	93,719020
1974,000000	93,728029
1973,000000	93,768204
1972,000000	93,755738
1971,000000	93,771323
1970,000000	93,770431
1969,000000	93,753005
1968,000000	93,737925
1967,000000	93,740198
1966,000000	93,762379
1965,000000	93,734740
1964,000000	93,764892
1963,000000	93,798748
1962,000000	93,801358
1961,000000	93,790905
1960,000000	93,799242
1959,000000	93,856557
1958,000000	93,837436
1957,000000	93,808932
1956,000000	93,839143
1955,000000	93,851148
1954,000000	93,875053
1953,000000	93,868871
1952,000000	93,902960
1951,000000	93,925309
1950,000000	93,981109
1949,000000	93,919712
1948,000000	93,941800
1947,000000	93,927419
1946,000000	93,943265
1945,000000	93,952505
1944,000000	93,989288
1943,000000	93,992842
1942,000000	93,977233
1941,000000	93,948441
1940,000000	93,970189
1939,000000	93,957926
1938,000000	93,967445
1937,000000	94,000113
1936,000000	94,006784
1935,000000	93,937695
1934,000000	93,993569
1933,000000	93,994837
1932,000000	93,999872
1931,000000	93,981015
1930,000000	93,970231
1929,000000	93,962909
1928,000000	93,900274
1927,000000	93,779383
1926,000000	93,779076
1925,000000	93,824151
1924,000000	93,789168
1923,000000	93,720080
1922,000000	93,751866
1921,000000	93,719720
1920,000000	93,764491
1919,000000	93,759036
1918,000000	93,739784
1917,000000	93,672981
1916,000000	93,678170
1915,000000	93,692009
1914,000000	93,697043
1913,000000	93,628967
1912,000000	93,602246
1911,000000	93,574473
1910,000000	93,566020
1909,000000	93,524592
1908,000000	93,514654
1907,000000	93,512437
1906,000000	93,427630
1905,000000	93,335685
1904,000000	93,318205
1903,000000	93,251080
1902,000000	93,241351
1901,000000	93,203167
1900,000000	93,145256
1899,000000	93,065125
1898,000000	93,029195
1897,000000	92,981335
1896,000000	92,957198
1895,000000	92,925227
1894,000000	92,908357
1893,000000	92,900655
1892,000000	92,884672
1891,000000	92,823521
1890,000000	92,810298
1889,000000	92,842144
1888,000000	92,796015
1887,000000	92,783515
1886,000000	92,782383
1885,000000	92,786746
1884,000000	92,782036
1883,000000	92,755715
1882,000000	92,701541
1881,000000	92,633922
1880,000000	92,652875
1879,000000	92,656875
1878,000000	92,635638
1877,000000	92,617645
1876,000000	92,564899
1875,000000	92,541551
1874,000000	92,484053
1873,000000	92,378379
1872,000000	92,365311
1871,000000	92,332723
1870,000000	92,246053
1869,000000	92,151610
1868,000000	92,082386
1867,000000	92,065290
1866,000000	92,044646
1865,000000	92,014312
1864,000000	91,970863
1863,000000	91,981761
1862,000000	91,984166
1861,000000	91,942963
1860,000000	91,923596
1859,000000	91,908239
1858,000000	91,898258
1857,000000	91,882779
1856,000000	91,836252
1855,000000	91,839486
1854,000000	91,837139
1853,000000	91,815527
1852,000000	91,780036
1851,000000	91,734975
1850,000000	91,712709
1849,000000	91,688168
1848,000000	91,634908
1847,000000	91,622283
1846,000000	91,611403
1845,000000	91,575056
1844,000000	91,547138
1843,000000	91,512111
1842,000000	91,468894
1841,000000	91,431567
1840,000000	91,372719
1839,000000	91,327999
1838,000000	91,279167
1837,000000	91,223500
1836,000000	91,176630
1835,000000	91,159018
1834,000000	91,137126
1833,000000	91,103547
1832,000000	91,091211
1831,000000	91,079239
1830,000000	91,061304
1829,000000	91,127945
1828,000000	91,148401
1827,000000	91,162946
1826,000000	91,140098
1825,000000	91,034289
1824,000000	90,942289
1823,000000	90,872867
1822,000000	90,817891
1821,000000	90,788006
1820,000000	90,761254
1819,000000	90,751083
1818,000000	90,755528
1817,000000	90,739517
1816,000000	90,733510
1815,000000	90,718139
1814,000000	90,666780
1813,000000	90,657330
1812,000000	90,612135
1811,000000	90,567574
1810,000000	90,548998
1809,000000	90,528995
1808,000000	90,501818
1807,000000	90,505322
1806,000000	90,462238
1805,000000	90,418708
1804,000000	90,383108
1803,000000	90,365066
1802,000000	90,350837
1801,000000	90,348373
1800,000000	90,337115
1799,000000	90,320048
1798,000000	90,281949
1797,000000	90,274853
1796,000000	90,274839
1795,000000	90,264688
1794,000000	90,236651
1793,000000	90,226113
1792,000000	90,205325
1791,000000	90,225779
1790,000000	90,192112
1789,000000	90,163738
1788,000000	90,168370
1787,000000	90,174011
1786,000000	90,154493
1785,000000	90,161646
1784,000000	90,134227
1783,000000	90,121458
1782,000000	90,112898
1781,000000	90,109690
1780,000000	90,085033
1779,000000	90,093358
1778,000000	90,075985
1777,000000	90,074014
1776,000000	90,053889
1775,000000	90,045871
1774,000000	90,045331
1773,000000	90,058550
1772,000000	90,038889
1771,000000	90,032567
1770,000000	90,003649
1769,000000	90,015391
1768,000000	90,031408
1767,000000	90,061755
1766,000000	90,008714
1765,000000	90,049095
1764,000000	89,994451
1763,000000	90,015410
1762,000000	90,004064
1761,000000	90,023753
1760,000000	90,008868
1759,000000	90,020915
1758,000000	90,027498
1757,000000	90,052489
1756,000000	90,068365
1755,000000	90,060779
1754,000000	90,041749
1753,000000	90,038502
1752,000000	90,024550
1751,000000	90,052058
1750,000000	90,055822
1749,000000	90,068353
1748,000000	90,039814
1747,000000	90,068972
1746,000000	90,080415
1745,000000	90,099244
1744,000000	90,105400
1743,000000	90,114034
1742,000000	90,099838
1741,000000	90,136644
1740,000000	90,131948
1739,000000	90,165428
1738,000000	90,211428
1737,000000	90,267050
1736,000000	90,236483
1735,000000	90,251825
1734,000000	90,243056
1733,000000	90,265518
1732,000000	90,260847
1731,000000	90,275495
1730,000000	90,300566
1729,000000	90,331136
1728,000000	90,317068
1727,000000	90,348543
1726,000000	90,334194
1725,000000	90,377491
1724,000000	90,371200
1723,000000	90,390841
1722,000000	90,388554
1721,000000	90,406312
1720,000000	90,436805
1719,000000	90,456001
1718,000000	90,475860
1717,000000	90,482948
1716,000000	90,492244
1715,000000	90,524743
1714,000000	90,517511
1713,000000	90,554763
1712,000000	90,545134
1711,000000	90,547836
1710,000000	90,591173
1709,000000	90,594660
1708,000000	90,566638
1707,000000	90,607136
1706,000000	90,596719
1705,000000	90,609432
1704,000000	90,630600
1703,000000	90,608213
1702,000000	90,649746
1701,000000	90,653474
1700,000000	90,648151
1699,000000	90,651814
1698,000000	90,650616
1697,000000	90,705097
1696,000000	90,653820
1695,000000	90,693790
1694,000000	90,669503
1693,000000	90,717367
1692,000000	90,717902
1691,000000	90,729752
1690,000000	90,674535
1689,000000	90,707986
1688,000000	90,758740
1687,000000	90,783674
1686,000000	90,777320
1685,000000	90,800187
1684,000000	90,786275
1683,000000	90,822826
1682,000000	90,816029
1681,000000	90,833137
1680,000000	90,844424
1679,000000	90,862570
1678,000000	90,888128
1677,000000	90,915989
1676,000000	90,936594
1675,000000	90,957008
1674,000000	90,964461
1673,000000	91,016674
1672,000000	91,042709
1671,000000	91,072739
1670,000000	91,105539
1669,000000	91,161650
1668,000000	91,148590
1667,000000	91,212834
1666,000000	91,209267
1665,000000	91,278211
1664,000000	91,274524
1663,000000	91,319221
1662,000000	91,336960
1661,000000	91,359732
1660,000000	91,376921
1659,000000	91,409683
1658,000000	91,415377
1657,000000	91,456734
1656,000000	91,484393
1655,000000	91,506537
1654,000000	91,497975
1653,000000	91,529744
1652,000000	91,538732
1651,000000	91,554449
1650,000000	91,564092
1649,000000	91,597140
1648,000000	91,588568
1647,000000	91,606370
1646,000000	91,615513
1645,000000	91,634436
1644,000000	91,632045
1643,000000	91,650008
1642,000000	91,650007
1641,000000	91,672179
1640,000000	91,661136
1639,000000	91,662523
1638,000000	91,679366
1637,000000	91,669645
1636,000000	91,701605
1635,000000	91,726729
1634,000000	91,721977
1633,000000	91,733554
1632,000000	91,738052
1631,000000	91,751602
1630,000000	91,735825
1629,000000	91,733199
1628,000000	91,736584
1627,000000	91,749436
1626,000000	91,751808
1625,000000	91,757782
1624,000000	91,741922
1623,000000	91,733575
1622,000000	91,732504
1621,000000	91,720495
1620,000000	91,725401
1619,000000	91,724763
1618,000000	91,718825
1617,000000	91,727994
1616,000000	91,741147
1615,000000	91,753727
1614,000000	91,756967
1613,000000	91,824299
1612,000000	91,848507
1611,000000	91,856365
1610,000000	91,848565
1609,000000	91,836988
1608,000000	91,850276
1607,000000	91,882408
1606,000000	91,891481
1605,000000	91,885637
1604,000000	91,865037
1603,000000	91,837246
1602,000000	91,838213
1601,000000	91,856364
1600,000000	91,812223
1599,000000	91,785764
1598,000000	91,765369
1597,000000	91,759602
1596,000000	91,740802
1595,000000	91,713175
1594,000000	91,705164
1593,000000	91,698040
1592,000000	91,675844
1591,000000	91,647191
1590,000000	91,634166
1589,000000	91,605103
1588,000000	91,567438
1587,000000	91,531157
1586,000000	91,510413
1585,000000	91,485227
1584,000000	91,455171
1583,000000	91,438953
1582,000000	91,424213
1581,000000	91,405124
1580,000000	91,390539
1579,000000	91,357934
1578,000000	91,327979
1577,000000	91,301521
1576,000000	91,265865
1575,000000	91,239803
1574,000000	91,216789
1573,000000	91,238466
1572,000000	91,312478
1571,000000	91,383135
1570,000000	91,466621
1569,000000	91,550494
1568,000000	91,541919
1567,000000	91,455964
1566,000000	91,291821
1565,000000	90,824411
1564,000000	90,031373
1563,000000	89,347021
1562,000000	89,050920
1561,000000	89,244985
1560,000000	89,770224
1559,000000	90,316639
1558,000000	90,646616
1557,000000	90,733897
1556,000000	90,711500
1555,000000	90,579901
1554,000000	90,431838
1553,000000	90,388626
1552,000000	90,353081
1551,000000	90,329171
1550,000000	90,302270
1549,000000	90,285739
1548,000000	90,158830
1547,000000	90,122264
1546,000000	90,196053
1545,000000	90,165273
1544,000000	90,134438
1543,000000	90,104668
1542,000000	90,075716
1541,000000	90,041342
1540,000000	90,028938
1539,000000	90,009617
1538,000000	89,968786
1537,000000	89,945342
1536,000000	89,781867
1535,000000	89,749114
1534,000000	89,842404
1533,000000	89,810260
1532,000000	89,774192
1531,000000	89,755742
1530,000000	89,713877
1529,000000	89,648482
1528,000000	89,610959
1527,000000	89,597282
1526,000000	89,578601
1525,000000	89,552867
1524,000000	89,535929
1523,000000	89,523315
1522,000000	89,497472
1521,000000	89,492410
1520,000000	89,476421
1519,000000	89,448996
1518,000000	89,430459
1517,000000	89,408725
1516,000000	89,403824
1515,000000	89,396916
1514,000000	89,395815
1513,000000	89,391309
1512,000000	89,374487
1511,000000	89,362689
1510,000000	89,351228
1509,000000	89,332358
1508,000000	89,327453
1507,000000	89,314702
1506,000000	89,316109
1505,000000	89,342899
1504,000000	89,388849
1503,000000	89,424717
1502,000000	89,455797
1501,000000	89,449042
1500,000000	89,426929
1499,000000	89,422001
1498,000000	89,425706
1497,000000	89,408826
1496,000000	89,358609
1495,000000	89,329886
1494,000000	89,376155
1493,000000	89,407852
1492,000000	89,422874
1491,000000	89,412628
1490,000000	89,406841
1489,000000	89,404715
1488,000000	89,407232
1487,000000	89,384714
1486,000000	89,405485
1485,000000	89,299931
1484,000000	89,387565
1483,000000	89,456177
1482,000000	89,463084
1481,000000	89,456938
1480,000000	89,473782
1479,000000	89,494853
1478,000000	89,506401
1477,000000	89,516857
1476,000000	89,546100
1475,000000	89,568448
1474,000000	89,590561
1473,000000	89,604464
1472,000000	89,623394
1471,000000	89,651892
1470,000000	89,648098
1469,000000	89,630193
1468,000000	89,664986
1467,000000	89,731122
1466,000000	89,622000
1465,000000	89,742671
1464,000000	89,812671
1463,000000	89,789929
1462,000000	89,770603
1461,000000	89,785315
1460,000000	89,850327
1459,000000	89,933763
1458,000000	89,971771
1457,000000	89,985303
1456,000000	90,032069
1455,000000	90,039451
1454,000000	90,047571
1453,000000	90,060616
1452,000000	90,057273
1451,000000	89,941164
1450,000000	90,092436
1449,000000	90,142814
1448,000000	90,146542
1447,000000	90,177388
1446,000000	90,219992
1445,000000	90,254518
1444,000000	90,291952
1443,000000	90,337854
1442,000000	90,340269
1441,000000	90,341679
1440,000000	90,386156
1439,000000	90,407478
1438,000000	90,433797
1437,000000	90,457484
1436,000000	90,503863
1435,000000	90,529558
1434,000000	90,535639
1433,000000	90,416244
1432,000000	90,469689
1431,000000	90,510749
1430,000000	90,531272
1429,000000	90,542331
1428,000000	90,561278
1427,000000	90,573194
1426,000000	90,623205
1425,000000	90,673219
1424,000000	90,675654
1423,000000	90,714207
1422,000000	90,840857
1421,000000	90,890395
1420,000000	90,909695
1419,000000	90,890749
1418,000000	90,794249
1417,000000	90,933889
1416,000000	90,976134
1415,000000	90,812047
1414,000000	90,853402
1413,000000	91,002591
1412,000000	91,045788
1411,000000	91,050458
1410,000000	91,069968
1409,000000	90,919314
1408,000000	90,874573
1407,000000	90,857930
1406,000000	91,027461
1405,000000	90,848138
1404,000000	90,852321
1403,000000	91,047048
1402,000000	91,065366
1401,000000	91,022725
1400,000000	90,843401
1399,000000	90,805812
1398,000000	90,829899
1397,000000	90,825459
1396,000000	90,846491
1395,000000	90,836126
1394,000000	90,827863
1393,000000	90,817073
1392,000000	90,810635
1391,000000	90,769959
1390,000000	90,691156
1389,000000	90,657955
1388,000000	90,704341
1387,000000	90,679532
1386,000000	90,668516
1385,000000	90,624228
1384,000000	90,613336
1383,000000	90,582770
1382,000000	90,588930
1381,000000	90,529821
1380,000000	90,541091
1379,000000	90,520518
1378,000000	90,488790
1377,000000	90,494223
1376,000000	90,673983
1375,000000	90,637878
1374,000000	90,411637
1373,000000	90,373549
1372,000000	90,354927
1371,000000	90,321740
1370,000000	90,284151
1369,000000	90,266103
1368,000000	90,216130
1367,000000	90,147926
1366,000000	90,111855
1365,000000	90,073487
1364,000000	90,021139
1363,000000	89,938727
1362,000000	89,872398
1361,000000	89,818659
1360,000000	89,770562
1359,000000	89,918105
1358,000000	89,646009
1357,000000	89,583683
1356,000000	89,586036
1355,000000	89,760076
1354,000000	89,718724
1353,000000	89,454682
1352,000000	89,433547
1351,000000	89,440622
1350,000000	89,552395
1349,000000	89,521262
1348,000000	89,466078
1347,000000	89,280070
1346,000000	89,304683
1345,000000	89,424371
1344,000000	89,377002
1343,000000	89,338444
1342,000000	89,306953
1341,000000	89,275843
1340,000000	89,282834
1339,000000	89,254044
1338,000000	89,214317
1337,000000	89,150089
1336,000000	89,143192
1335,000000	89,107223
1334,000000	89,099527
1333,000000	89,025471
1332,000000	88,962271
1331,000000	88,891176
1330,000000	88,852813
1329,000000	88,820553
1328,000000	88,800268
1327,000000	88,758310
1326,000000	88,733036
1325,000000	88,719296
1324,000000	88,732048
1323,000000	88,697828
1322,000000	88,664239
1321,000000	88,616944
1320,000000	88,609586
1319,000000	88,570391
1318,000000	88,575603
1317,000000	88,582340
1316,000000	88,496992
1315,000000	88,478755
1314,000000	88,474424
1313,000000	88,457930
1312,000000	88,434893
1311,000000	88,416056
1310,000000	88,405665
1309,000000	88,420866
1308,000000	88,491291
1307,000000	88,463651
1306,000000	88,381718
1305,000000	88,370401
1304,000000	88,382577
1303,000000	88,365757
1302,000000	88,356794
1301,000000	88,351347
1300,000000	88,357730
1299,000000	88,367022
1298,000000	88,372963
1297,000000	88,371980
1296,000000	88,399640
1295,000000	88,404678
1294,000000	88,413430
1293,000000	88,430708
1292,000000	88,449513
1291,000000	88,463123
1290,000000	88,483340
1289,000000	88,561011
1288,000000	88,613489
1287,000000	88,535935
1286,000000	88,543303
1285,000000	88,581900
1284,000000	88,599011
1283,000000	88,590920
1282,000000	88,661636
1281,000000	88,719932
1280,000000	88,665719
1279,000000	88,696109
1278,000000	88,741274
1277,000000	88,772393
1276,000000	88,796975
1275,000000	88,813048
1274,000000	88,836518
1273,000000	88,881997
1272,000000	88,941812
1271,000000	88,998158
1270,000000	89,035673
1269,000000	89,052914
1268,000000	89,131580
1267,000000	89,193833
1266,000000	89,189921
1265,000000	89,218073
1264,000000	89,231078
1263,000000	89,243304
1262,000000	89,278423
1261,000000	89,316503
1260,000000	89,351966
1259,000000	89,382669
1258,000000	89,408311
1257,000000	89,436312
1256,000000	89,477679
1255,000000	89,496836
1254,000000	89,535106
1253,000000	89,586528
1252,000000	89,619065
1251,000000	89,683159
1250,000000	89,713579
1249,000000	89,698185
1248,000000	89,728381
1247,000000	89,757962
1246,000000	89,793908
1245,000000	89,801601
1244,000000	89,879037
1243,000000	89,901061
1242,000000	89,838852
1241,000000	89,859432
1240,000000	89,876575
1239,000000	89,891706
1238,000000	89,920809
1237,000000	89,927761
1236,000000	89,945622
1235,000000	89,974231
1234,000000	89,983603
1233,000000	89,991202
1232,000000	90,007346
1231,000000	90,003928
1230,000000	90,035814
1229,000000	90,052270
1228,000000	90,021582
1227,000000	90,004632
1226,000000	90,009452
1225,000000	90,035902
1224,000000	90,044507
1223,000000	90,092097
1222,000000	90,052002
1221,000000	89,972257
1220,000000	89,959759
1219,000000	89,945364
1218,000000	89,924199
1217,000000	89,910190
1216,000000	89,883253
1215,000000	89,859337
1214,000000	89,845548
1213,000000	89,826946
1212,000000	89,802564
1211,000000	89,776908
1210,000000	89,753406
1209,000000	89,730037
1208,000000	89,686136
1207,000000	89,724820
1206,000000	89,667111
1205,000000	89,586356
1204,000000	89,539314
1203,000000	89,512482
1202,000000	89,470783
1201,000000	89,426749
1200,000000	89,386573
1199,000000	89,355341
1198,000000	89,308630
1197,000000	89,269337
1196,000000	89,217068
1195,000000	89,163298
1194,000000	89,126902
1193,000000	89,099430
1192,000000	89,064883
1191,000000	89,024259
1190,000000	88,971982
1189,000000	88,936219
1188,000000	88,877693
1187,000000	88,819133
1186,000000	88,771286
1185,000000	88,737151
1184,000000	88,687173
1183,000000	88,648983
1182,000000	88,584523
1181,000000	88,525657
1180,000000	88,481419
1179,000000	88,465853
1178,000000	88,433275
1177,000000	88,395074
1176,000000	88,345178
1175,000000	88,363367
1174,000000	88,332259
1173,000000	88,301632
1172,000000	88,239822
1171,000000	88,201775
1170,000000	88,148981
1169,000000	88,123614
1168,000000	88,103842
1167,000000	88,085445
1166,000000	88,044001
1165,000000	88,031326
1164,000000	88,019856
1163,000000	88,001330
1162,000000	87,971209
1161,000000	87,961971
1160,000000	87,936829
1159,000000	87,934071
1158,000000	87,918899
1157,000000	87,905161
1156,000000	87,905589
1155,000000	87,883856
1154,000000	87,857890
1153,000000	87,861344
1152,000000	87,837146
1151,000000	87,870375
1150,000000	87,865459
1149,000000	87,867442
1148,000000	87,853812
1147,000000	87,852408
1146,000000	87,785605
1145,000000	87,846722
1144,000000	87,881676
1143,000000	87,919566
1142,000000	87,945643
1141,000000	87,959001
1140,000000	87,964409
1139,000000	87,991867
1138,000000	88,031546
1137,000000	88,076841
1136,000000	88,081596
1135,000000	88,123988
1134,000000	88,141024
1133,000000	88,193389
1132,000000	88,211299
1131,000000	88,252435
1130,000000	88,279374
1129,000000	88,322903
1128,000000	88,376642
1127,000000	88,386177
1126,000000	88,431808
1125,000000	88,404827
1124,000000	88,406308
1123,000000	88,528806
1122,000000	88,582095
1121,000000	88,625038
1120,000000	88,656072
1119,000000	88,660819
1118,000000	88,706541
1117,000000	88,735226
1116,000000	88,785107
1115,000000	88,828508
1114,000000	88,843309
1113,000000	88,895472
1112,000000	88,922400
1111,000000	88,974505
1110,000000	88,985098
1109,000000	89,059352
1108,000000	89,108879
1107,000000	89,141131
1106,000000	89,144625
1105,000000	89,174191
1104,000000	89,209240
1103,000000	89,209408
1102,000000	89,242919
1101,000000	89,250167
1100,000000	89,253081
1099,000000	89,242386
1098,000000	89,250254
1097,000000	89,265321
1096,000000	89,250652
1095,000000	89,271931
1094,000000	89,244564
1093,000000	89,257527
1092,000000	89,249404
1091,000000	89,252088
1090,000000	89,241941
1089,000000	89,243921
1088,000000	89,221345
1087,000000	89,218049
1086,000000	89,190579
1085,000000	89,172591
1084,000000	89,159327
1083,000000	89,167890
1082,000000	89,094834
1081,000000	89,090655
1080,000000	89,066039
1079,000000	89,022323
1078,000000	88,978924
1077,000000	88,948844
1076,000000	88,887376
1075,000000	88,860399
1074,000000	88,692112
1073,000000	88,782326
1072,000000	88,729873
1071,000000	88,702275
1070,000000	88,671004
1069,000000	88,611399
1068,000000	88,576777
1067,000000	88,525252
1066,000000	88,460504
1065,000000	88,409712
1064,000000	88,368870
1063,000000	88,315797
1062,000000	88,286443
1061,000000	88,225925
1060,000000	88,044767
1059,000000	88,106018
1058,000000	88,033731
1057,000000	87,994404
1056,000000	87,925837
1055,000000	87,889762
1054,000000	87,768206
1053,000000	87,821604
1052,000000	87,777777
1051,000000	87,738641
1050,000000	87,679259
1049,000000	87,557381
1048,000000	87,622744
1047,000000	87,616909
1046,000000	87,568797
1045,000000	87,424027
1044,000000	87,503013
1043,000000	87,474792
1042,000000	87,454007
1041,000000	87,391650
1040,000000	87,261363
1039,000000	87,367839
1038,000000	87,367769
1037,000000	87,341836
1036,000000	87,240343
1035,000000	87,352664
1034,000000	87,367044
1033,000000	87,352069
1032,000000	87,226303
1031,000000	87,356934
1030,000000	87,328406
1029,000000	87,243469
1028,000000	87,390199
1027,000000	87,406403
1026,000000	87,376968
1025,000000	87,324535
1024,000000	87,466379
1023,000000	87,473776
1022,000000	87,370403
1021,000000	87,531946
1020,000000	87,568547
1019,000000	87,575083
1018,000000	87,516786
1017,000000	87,682005
1016,000000	87,741281
1015,000000	87,764616
1014,000000	87,778126
1013,000000	87,792783
1012,000000	87,681275
1011,000000	87,743149
1010,000000	87,839968
1009,000000	88,014881
1008,000000	88,040218
1007,000000	88,058818
1006,000000	88,042286
1005,000000	87,960947
1004,000000	88,048541
1003,000000	88,247876
1002,000000	88,280034
1001,000000	88,248505
1000,000000	88,106422
999,000000	88,154599
998,000000	88,243884
997,000000	88,172111
996,000000	88,261401
995,000000	88,155360
994,000000	88,257383
993,000000	88,401873
992,000000	88,353993
991,000000	88,247760
990,000000	88,331715
989,000000	88,498297
988,000000	88,434346
987,000000	88,307473
986,000000	88,300186
985,000000	88,361726
984,000000	88,466560
983,000000	88,430824
982,000000	88,324225
981,000000	88,321395
980,000000	88,371809
979,000000	88,407456
978,000000	88,425792
977,000000	88,427686
976,000000	88,452016
975,000000	88,446932
974,000000	88,438161
973,000000	88,474543
972,000000	88,568716
971,000000	88,628937
970,000000	88,568515
969,000000	88,370648
968,000000	88,226434
967,000000	88,191552
966,000000	88,157580
965,000000	88,116409
964,000000	88,051203
963,000000	88,015973
962,000000	87,964523
961,000000	87,910438
960,000000	87,861468
959,000000	87,815807
958,000000	87,776495
957,000000	87,755321
956,000000	87,722426
955,000000	87,690022
954,000000	87,648651
953,000000	87,607641
952,000000	87,549770
951,000000	87,484591
950,000000	87,468589
949,000000	87,443982
948,000000	87,412035
947,000000	87,394131
946,000000	87,334727
945,000000	87,275576
944,000000	87,252679
943,000000	87,244458
942,000000	87,234357
941,000000	87,211073
940,000000	87,214664
939,000000	87,250904
938,000000	87,242119
937,000000	87,213525
936,000000	87,218852
935,000000	87,225489
934,000000	87,238096
933,000000	87,249824
932,000000	87,262023
931,000000	87,283292
930,000000	87,307171
929,000000	87,338112
928,000000	87,362887
927,000000	87,381596
926,000000	87,422009
925,000000	87,487760
924,000000	87,539247
923,000000	87,573913
922,000000	87,632513
921,000000	87,657509
920,000000	87,707823
919,000000	87,762746
918,000000	87,785469
917,000000	87,823780
916,000000	87,847430
915,000000	87,872540
914,000000	87,947545
913,000000	87,997596
912,000000	88,019991
911,000000	88,026164
910,000000	88,061956
909,000000	88,111815
908,000000	88,118138
907,000000	88,104033
906,000000	88,109074
905,000000	88,112031
904,000000	88,131693
903,000000	88,150269
902,000000	88,152735
901,000000	88,186675
900,000000	88,253892
899,000000	88,210048
898,000000	88,187070
897,000000	88,158075
896,000000	88,119271
895,000000	88,133634
894,000000	88,159886
893,000000	88,075872
892,000000	88,028698
891,000000	88,000229
890,000000	88,028037
889,000000	87,974554
888,000000	87,865731
887,000000	87,844292
886,000000	87,800252
885,000000	87,798496
884,000000	87,756897
883,000000	87,679595
882,000000	87,685159
881,000000	87,666989
880,000000	87,642815
879,000000	87,532013
878,000000	87,481212
877,000000	87,427860
876,000000	87,441157
875,000000	87,397204
874,000000	87,335222
873,000000	87,276223
872,000000	87,252543
871,000000	87,196955
870,000000	87,173236
869,000000	87,200758
868,000000	87,214190
867,000000	87,140306
866,000000	87,140144
865,000000	87,114598
864,000000	87,172639
863,000000	87,128388
862,000000	87,156822
861,000000	86,676526
860,000000	86,543129
859,000000	86,432384
858,000000	86,158413
857,000000	86,520813
856,000000	86,403104
855,000000	86,774343
854,000000	86,486622
853,000000	86,115863
852,000000	86,695411
851,000000	86,544711
850,000000	86,689938
849,000000	86,695747
848,000000	86,742466
847,000000	87,017782
846,000000	87,181370
845,000000	87,293158
844,000000	87,244426
843,000000	86,983330
842,000000	87,088435
841,000000	87,227485
840,000000	87,233487
839,000000	87,058445
838,000000	87,491696
837,000000	87,360215
836,000000	87,228454
835,000000	87,671555
834,000000	87,679940
833,000000	87,348095
832,000000	87,417589
831,000000	87,330199
830,000000	87,334665
829,000000	87,382837
828,000000	87,298483
827,000000	87,360052
826,000000	87,347210
825,000000	87,170111
824,000000	87,135636
823,000000	87,279809
822,000000	87,258249
821,000000	87,046052
820,000000	87,248038
819,000000	87,038121
818,000000	86,866203
817,000000	87,023058
816,000000	86,875947
815,000000	86,752992
814,000000	86,793619
813,000000	86,594945
812,000000	86,536799
811,000000	86,569726
810,000000	86,538160
809,000000	86,487306
808,000000	86,421928
807,000000	86,267675
806,000000	86,232692
805,000000	86,262750
804,000000	86,354159
803,000000	86,322776
802,000000	86,330450
801,000000	86,217823
800,000000	86,114502
799,000000	86,336174
798,000000	86,242648
797,000000	86,164944
796,000000	86,186584
795,000000	86,305523
794,000000	86,123425
793,000000	86,236268
792,000000	86,305608
791,000000	86,367494
790,000000	86,348849
789,000000	86,614921
788,000000	86,350775
787,000000	86,519668
786,000000	86,611175
785,000000	86,755172
784,000000	86,546027
783,000000	86,711395
782,000000	86,761114
781,000000	86,933043
780,000000	86,808591
779,000000	87,016536
778,000000	86,955262
777,000000	87,056705
776,000000	87,221004
775,000000	87,035708
774,000000	87,078176
773,000000	87,125447
772,000000	87,142064
771,000000	87,263673
770,000000	87,116662
769,000000	87,214609
768,000000	87,150372
767,000000	87,195711
766,000000	87,129802
765,000000	87,158753
764,000000	86,899670
763,000000	86,828760
762,000000	86,891509
761,000000	86,842894
760,000000	86,858496
759,000000	86,710826
758,000000	86,674150
757,000000	86,564846
756,000000	86,602081
755,000000	86,321800
754,000000	86,288902
753,000000	86,305098
752,000000	86,213124
751,000000	86,060724
750,000000	86,079089
749,000000	86,011226
748,000000	86,022180
747,000000	85,976522
746,000000	85,950601
745,000000	85,900771
744,000000	85,761108
743,000000	85,907251
742,000000	85,801931
741,000000	85,877912
740,000000	86,006618
739,000000	85,964958
738,000000	85,977417
737,000000	85,976146
736,000000	85,991849
735,000000	86,076609
734,000000	86,075596
733,000000	86,150245
732,000000	86,286732
731,000000	86,353943
730,000000	86,411841
729,000000	86,519963
728,000000	86,531616
727,000000	86,572013
726,000000	86,611884
725,000000	86,689986
724,000000	86,682388
723,000000	86,821423
722,000000	86,829760
721,000000	86,771970
720,000000	86,771510
719,000000	86,868554
718,000000	86,806129
717,000000	86,858552
716,000000	86,738406
715,000000	86,758687
714,000000	86,700459
713,000000	86,603984
712,000000	86,593065
711,000000	86,516764
710,000000	86,516234
709,000000	86,384953
708,000000	86,353710
707,000000	86,270422
706,000000	86,184464
705,000000	86,105560
704,000000	86,095499
703,000000	86,074237
702,000000	85,971921
701,000000	85,863592
700,000000	85,837082
699,000000	85,835848
698,000000	85,756916
697,000000	85,754278
696,000000	85,660331
695,000000	85,580011
694,000000	85,635148
693,000000	85,701085
692,000000	85,677723
691,000000	85,750873
690,000000	85,705573
689,000000	85,690400
688,000000	85,690101
687,000000	85,710924
686,000000	85,838828
685,000000	85,813882
684,000000	85,841855
683,000000	86,007008
682,000000	86,096252
681,000000	86,157988
680,000000	86,192952
679,000000	86,194646
678,000000	86,234085
677,000000	86,267917
676,000000	86,293845
675,000000	86,308452
674,000000	86,294302
673,000000	86,302908
672,000000	86,262054
671,000000	86,177694
670,000000	86,146010
669,000000	86,132669
668,000000	86,013322
667,000000	85,957027
666,000000	85,970335
665,000000	85,984339
664,000000	85,836426
663,000000	85,826602
662,000000	85,755188
661,000000	85,645201
660,000000	85,602194
659,000000	85,585026
658,000000	85,468456
657,000000	85,382962
656,000000	85,356867
655,000000	85,365097
654,000000	85,349419
653,000000	85,359037
652,000000	85,382486
651,000000	85,370358
650,000000	85,368603
649,000000	85,431113
648,000000	85,438225
647,000000	85,440754
646,000000	85,518626
645,000000	85,570104
644,000000	85,584358
643,000000	85,655838
642,000000	85,716864
641,000000	85,718866
640,000000	85,797228
639,000000	85,820766
638,000000	85,779901
637,000000	85,810186
636,000000	85,793639
635,000000	85,762274
634,000000	85,778786
633,000000	85,721270
632,000000	85,660110
631,000000	85,683889
630,000000	85,688267
629,000000	85,574692
628,000000	85,461481
627,000000	85,418742
626,000000	85,393982
625,000000	85,347815
624,000000	85,291671
623,000000	85,238653
622,000000	85,158307
621,000000	85,114718
620,000000	85,106618
619,000000	85,077625
618,000000	85,074439
617,000000	85,074506
616,000000	85,035443
615,000000	85,051732
614,000000	85,111929
613,000000	85,179663
612,000000	85,201981
611,000000	85,218134
610,000000	85,238854
609,000000	85,267518
608,000000	85,364140
607,000000	85,388659
606,000000	85,420688
605,000000	85,456129
604,000000	85,470610
603,000000	85,501475
602,000000	85,507694
601,000000	85,487702
600,000000	85,422318
599,000000	85,328438
598,000000	85,236413
597,000000	85,182192
596,000000	85,128621
595,000000	85,113781
594,000000	85,107997
593,000000	85,043975
592,000000	84,955089
591,000000	84,916768
590,000000	84,832332
589,000000	84,770316
588,000000	84,756534
587,000000	84,743347
586,000000	84,778541
585,000000	84,768112
584,000000	84,805430
583,000000	84,834930
582,000000	84,802857
581,000000	84,870799
580,000000	84,958472
579,000000	85,008502
578,000000	85,062160
577,000000	85,114171
576,000000	85,141046
575,000000	85,144592
574,000000	85,177304
573,000000	85,184821
572,000000	85,157776
571,000000	85,165849
570,000000	85,134549
569,000000	85,091876
568,000000	84,991369
567,000000	84,867802
566,000000	84,831118
565,000000	84,774898
564,000000	84,768264
563,000000	84,690798
562,000000	84,695371
561,000000	84,751757
560,000000	84,754236
559,000000	84,759827
558,000000	84,679278
557,000000	84,755086
556,000000	84,836509
555,000000	84,833278
554,000000	84,871352
553,000000	84,950166
552,000000	84,993259
551,000000	85,090443
550,000000	85,153094
549,000000	85,191325
548,000000	85,115451
547,000000	84,971093
546,000000	85,010526
545,000000	85,010799
544,000000	84,947181
543,000000	84,903052
542,000000	84,827903
541,000000	84,780790
540,000000	84,711648
539,000000	84,704147
538,000000	84,610484
537,000000	84,592241
536,000000	84,507044
535,000000	84,503063
534,000000	84,498901
533,000000	84,447690
532,000000	84,495316
531,000000	84,580158
530,000000	84,648523
529,000000	84,632628
528,000000	84,695007
527,000000	84,715940
526,000000	84,758459
525,000000	84,798345
524,000000	84,761586
523,000000	84,791115
522,000000	84,729518
521,000000	84,654178
520,000000	84,574871
519,000000	84,461678
518,000000	84,430493
517,000000	84,361222
516,000000	84,219118
515,000000	84,137340
514,000000	83,985926
513,000000	84,078818
512,000000	84,011783
511,000000	83,974350
510,000000	83,998545
509,000000	83,978155
508,000000	84,077531
507,000000	84,101007
506,000000	84,091725
505,000000	84,060618
504,000000	84,108482
503,000000	84,057244
502,000000	83,964015
501,000000	83,975522
500,000000	83,862533
499,000000	83,846856
498,000000	83,686290
497,000000	83,675417
496,000000	83,536379
495,000000	83,509425
494,000000	83,467306
493,000000	83,461893
492,000000	83,473827
491,000000	83,449391
490,000000	83,546471
489,000000	83,643449
488,000000	83,686404
487,000000	83,788929
486,000000	83,844783
485,000000	83,828954
484,000000	83,868825
483,000000	83,864845
482,000000	83,886446
481,000000	83,673306
480,000000	83,588337
479,000000	83,474715
478,000000	83,334241
477,000000	83,279458
476,000000	83,161551
475,000000	83,121762
474,000000	83,050074
473,000000	83,087591
472,000000	83,027412
471,000000	83,113576
470,000000	83,064422
469,000000	83,029431
468,000000	82,923747
467,000000	82,900233
466,000000	82,695542
465,000000	82,595405
464,000000	82,405101
463,000000	82,284206
462,000000	82,113626
461,000000	82,048538
460,000000	82,061828
459,000000	81,995547
458,000000	82,046369
457,000000	82,061693
456,000000	82,108386
455,000000	82,094808
454,000000	82,067018
453,000000	82,023425
452,000000	81,977939
451,000000	81,868626
450,000000	81,802815
449,000000	81,601761
448,000000	81,470994
447,000000	81,372490
446,000000	81,220491
445,000000	81,261519
444,000000	81,272498
443,000000	81,321765
442,000000	81,359065
441,000000	81,261127
440,000000	81,132405
439,000000	80,974959
438,000000	80,862997
437,000000	80,595575
436,000000	80,413749
435,000000	80,177503
434,000000	80,058581
433,000000	79,799090
432,000000	79,738864
431,000000	79,582074
430,000000	79,373183
429,000000	78,966099
428,000000	78,542419
427,000000	77,998761
426,000000	77,353085
425,000000	76,637616
424,000000	75,828304
423,000000	74,931469
422,000000	73,971065
421,000000	72,899939
420,000000	71,717809
419,000000	70,485825
418,000000	69,144380
417,000000	67,824888
416,000000	66,562461
415,000000	65,354826
414,000000	64,422402
413,000000	63,600002
412,000000	62,883766
411,000000	62,311649
410,000000	61,977558
409,000000	61,748376
408,000000	61,516339
407,000000	61,404113
406,000000	61,384516
405,000000	61,420887
404,000000	61,535419
403,000000	61,662679
402,000000	61,834753
401,000000	61,992731
400,000000	62,233217
399,000000	62,445605
398,000000	62,646999
397,000000	62,873308
396,000000	63,040547
395,000000	63,218374
394,000000	63,414664
393,000000	63,586062
392,000000	63,707543
391,000000	63,911073
390,000000	64,108320
389,000000	64,261987
388,000000	64,429329
387,000000	64,575670
386,000000	64,713395
385,000000	64,838157
384,000000	64,994204
383,000000	65,226543
382,000000	65,498218
381,000000	65,683098
380,000000	65,912681
379,000000	66,609877
378,000000	67,294243
377,000000	67,145261
376,000000	67,692574
375,000000	68,216832
374,000000	68,784101
373,000000	69,789179
372,000000	70,401086
371,000000	70,763088
370,000000	71,388293
369,000000	71,997602
368,000000	72,706858
367,000000	73,289253
366,000000	73,970604
365,000000	74,575442
364,000000	75,507179
363,000000	76,109738
362,000000	76,592226
361,000000	77,116567
360,000000	77,494591
359,000000	77,984512
358,000000	78,326619
357,000000	78,872007
356,000000	79,503247
355,000000	79,627171
354,000000	80,043358
353,000000	80,578582
352,000000	81,147866
351,000000	81,733561
350,000000	82,051641
349,000000	82,311937
348,000000	82,555936
347,000000	83,243942
346,000000	83,623141
345,000000	83,743909
344,000000	84,110753
343,000000	84,192464
342,000000	84,162172
341,000000	84,123486
340,000000	84,036662
339,000000	83,860101
338,000000	83,692354
337,000000	83,803499
336,000000	83,845321
335,000000	83,854071
334,000000	83,569202
333,000000	83,095291
332,000000	83,156517
331,000000	83,262820
330,000000	82,785838
329,000000	82,404955
328,000000	82,360148
327,000000	82,112647
326,000000	82,348273
325,000000	82,096484
324,000000	82,390964
323,000000	82,575522
322,000000	82,267225
321,000000	81,770557
320,000000	81,547063
319,000000	81,145436
318,000000	80,887247
317,000000	81,019913
316,000000	80,984037
315,000000	80,970065
314,000000	81,076612
313,000000	81,137339
312,000000	81,175640
311,000000	81,099294
310,000000	81,174511
309,000000	81,586095
308,000000	81,863082
307,000000	82,225745
306,000000	82,633121
305,000000	83,349207
304,000000	83,924903
303,000000	84,328524
302,000000	84,833682
301,000000	85,171685
300,000000	85,457224
299,000000	85,697964
298,000000	86,216188
297,000000	86,613070
296,000000	87,024972
295,000000	87,517730
294,000000	88,311490
293,000000	89,077679
292,000000	89,831944
291,000000	90,609441
290,000000	91,357853
289,000000	92,091805
288,000000	92,915071
287,000000	93,890258
286,000000	94,699892
285,000000	95,625896
284,000000	96,553307
283,000000	97,048871
282,000000	97,597327
281,000000	98,274127
280,000000	98,668394
279,000000	99,251050
278,000000	99,651628
277,000000	99,952539
276,000000	100,221684
275,000000	100,368796
274,000000	100,632873
273,000000	100,961701
272,000000	101,071089
271,000000	101,472496
270,000000	101,610864
269,000000	101,566089
268,000000	101,658787
267,000000	101,908009
266,000000	102,132385
265,000000	102,352516
264,000000	102,564221
263,000000	103,093777
262,000000	103,646498
261,000000	104,218947
260,000000	104,742514
259,000000	105,541820
258,000000	106,429594
257,000000	107,166967
256,000000	108,186106
255,000000	109,393240
254,000000	110,492654
253,000000	111,800264
252,000000	113,172749
251,000000	114,586469
250,000000	116,279081
249,000000	117,768803
248,000000	118,860848
247,000000	120,097247
246,000000	121,293228
245,000000	122,865875
244,000000	124,521275
243,000000	126,258843
242,000000	128,114784
241,000000	130,010301
240,000000	131,954114
239,000000	133,966482
238,000000	136,111594
237,000000	138,846951
236,000000	141,991585
235,000000	145,350618
234,000000	149,027187
233,000000	150,577049
232,000000	154,772778
231,000000	157,475006
230,000000	160,411837
229,000000	163,248349
228,000000	166,189231
227,000000	169,093981
226,000000	171,912108
225,000000	174,878223
224,000000	177,662959
223,000000	180,119652
222,000000	183,010858
221,000000	185,174226
220,000000	187,401008
219,000000	189,596387
218,000000	191,771826
217,000000	194,161851
216,000000	196,336881
215,000000	198,677380
214,000000	200,876808
213,000000	203,884070
212,000000	206,741226
211,000000	210,515722
210,000000	214,745124
209,000000	219,958369
208,000000	224,928478
207,000000	230,998456
206,000000	237,494465
205,000000	244,916117
204,000000	252,606879
203,000000	261,540049
202,000000	271,718296
201,000000	282,622566
200,000000	292,472976
