PE UV       SUBTECH     SPECTRUM    ASCII       PEDS        4.00        
   -1
q2dot.Sample.asc
22/03/28
15:10:54.00
22/03/28
15:10:54.00
Administrator

200,000000
1
Lambda 1050
1050L1808311
PerkinElmer UV WinLab 6.4.0.973 / 2.02.11 Lambda 900 UV/VIS/NIR, May 23 2018 11:23:04

0
0
3350/servo 860,8/2
0
0
UV/VIS
1
1
1
CommonBeamDepol,RBeamAtt,SBeamAtt,60mm sphere
0
0
0
0
Program
Program
3350/servo 860,8/2
3350/0,2 860,8/0,2
3350/0,2 860,8/0,2
0
1.00
 
 
 
0
 
860,8
319,2
860,8
Front
100
on
S:100 R:100
 
0
0
0
 
0
 
 
 
0
 
 
0
0
0
0
0
 
 
 
 
0
0


0
0
#HDR
-1
-1
#GR
nm
%T
1.0
0.0
2000,000000
-1,000000
1801
8
92,002432
0,000000
#DATA
2000,000000	91,363136
1999,000000	91,399189
1998,000000	91,349561
1997,000000	91,343348
1996,000000	91,410875
1995,000000	91,388882
1994,000000	91,395212
1993,000000	91,355819
1992,000000	91,422368
1991,000000	91,414698
1990,000000	91,353689
1989,000000	91,371622
1988,000000	91,403282
1987,000000	91,362615
1986,000000	91,355309
1985,000000	91,365534
1984,000000	91,381287
1983,000000	91,380815
1982,000000	91,388260
1981,000000	91,355777
1980,000000	91,399057
1979,000000	91,409131
1978,000000	91,389603
1977,000000	91,397241
1976,000000	91,435458
1975,000000	91,402151
1974,000000	91,420958
1973,000000	91,448699
1972,000000	91,492029
1971,000000	91,455608
1970,000000	91,447627
1969,000000	91,476828
1968,000000	91,441620
1967,000000	91,459204
1966,000000	91,438490
1965,000000	91,447322
1964,000000	91,480423
1963,000000	91,539935
1962,000000	91,501556
1961,000000	91,497499
1960,000000	91,493548
1959,000000	91,538788
1958,000000	91,570698
1957,000000	91,553170
1956,000000	91,538795
1955,000000	91,579783
1954,000000	91,642317
1953,000000	91,595238
1952,000000	91,643319
1951,000000	91,633963
1950,000000	91,690819
1949,000000	91,663621
1948,000000	91,745070
1947,000000	91,715332
1946,000000	91,683987
1945,000000	91,703346
1944,000000	91,759917
1943,000000	91,741877
1942,000000	91,765942
1941,000000	91,767257
1940,000000	91,787187
1939,000000	91,789402
1938,000000	91,758988
1937,000000	91,748230
1936,000000	91,799198
1935,000000	91,781855
1934,000000	91,845086
1933,000000	91,817021
1932,000000	91,850332
1931,000000	91,856859
1930,000000	91,884767
1929,000000	91,867832
1928,000000	91,866920
1927,000000	91,869210
1926,000000	91,907843
1925,000000	91,957949
1924,000000	91,945942
1923,000000	91,910159
1922,000000	91,954998
1921,000000	91,926253
1920,000000	91,970203
1919,000000	91,935932
1918,000000	91,939444
1917,000000	91,941844
1916,000000	91,931931
1915,000000	91,904786
1914,000000	91,976349
1913,000000	92,002432
1912,000000	91,958289
1911,000000	91,931790
1910,000000	91,924355
1909,000000	91,920146
1908,000000	91,931995
1907,000000	91,903061
1906,000000	91,880950
1905,000000	91,846507
1904,000000	91,807687
1903,000000	91,783336
1902,000000	91,780408
1901,000000	91,760792
1900,000000	91,767358
1899,000000	91,711151
1898,000000	91,654495
1897,000000	91,603701
1896,000000	91,631989
1895,000000	91,610990
1894,000000	91,618277
1893,000000	91,560067
1892,000000	91,564170
1891,000000	91,560372
1890,000000	91,574565
1889,000000	91,584767
1888,000000	91,585724
1887,000000	91,580803
1886,000000	91,628670
1885,000000	91,648131
1884,000000	91,633468
1883,000000	91,598280
1882,000000	91,568837
1881,000000	91,554853
1880,000000	91,556942
1879,000000	91,515071
1878,000000	91,514693
1877,000000	91,509712
1876,000000	91,474387
1875,000000	91,473932
1874,000000	91,461539
1873,000000	91,389991
1872,000000	91,342884
1871,000000	91,315154
1870,000000	91,296596
1869,000000	91,271499
1868,000000	91,232319
1867,000000	91,191913
1866,000000	91,212892
1865,000000	91,231297
1864,000000	91,236295
1863,000000	91,270380
1862,000000	91,272112
1861,000000	91,269902
1860,000000	91,256361
1859,000000	91,267226
1858,000000	91,289046
1857,000000	91,256296
1856,000000	91,237633
1855,000000	91,273549
1854,000000	91,272931
1853,000000	91,265823
1852,000000	91,258114
1851,000000	91,246641
1850,000000	91,249953
1849,000000	91,236191
1848,000000	91,194527
1847,000000	91,168139
1846,000000	91,148175
1845,000000	91,134817
1844,000000	91,158893
1843,000000	91,145711
1842,000000	91,100481
1841,000000	91,060301
1840,000000	91,033349
1839,000000	91,007987
1838,000000	90,979339
1837,000000	90,988168
1836,000000	90,969398
1835,000000	90,955809
1834,000000	90,930667
1833,000000	90,898955
1832,000000	90,901136
1831,000000	90,893448
1830,000000	90,875289
1829,000000	90,836379
1828,000000	90,818101
1827,000000	90,819491
1826,000000	90,805685
1825,000000	90,806620
1824,000000	90,783413
1823,000000	90,767161
1822,000000	90,758756
1821,000000	90,742247
1820,000000	90,714432
1819,000000	90,708017
1818,000000	90,705522
1817,000000	90,701135
1816,000000	90,673186
1815,000000	90,649810
1814,000000	90,625302
1813,000000	90,621177
1812,000000	90,594154
1811,000000	90,565365
1810,000000	90,534157
1809,000000	90,522990
1808,000000	90,518584
1807,000000	90,512183
1806,000000	90,466993
1805,000000	90,471279
1804,000000	90,440077
1803,000000	90,408527
1802,000000	90,400073
1801,000000	90,401593
1800,000000	90,366672
1799,000000	90,327602
1798,000000	90,294411
1797,000000	90,299697
1796,000000	90,286796
1795,000000	90,274949
1794,000000	90,245424
1793,000000	90,226542
1792,000000	90,202429
1791,000000	90,217723
1790,000000	90,183078
1789,000000	90,160185
1788,000000	90,155326
1787,000000	90,146822
1786,000000	90,120379
1785,000000	90,118025
1784,000000	90,087584
1783,000000	90,061657
1782,000000	90,040819
1781,000000	90,016305
1780,000000	89,995581
1779,000000	90,006656
1778,000000	90,008924
1777,000000	89,966574
1776,000000	89,926876
1775,000000	89,934119
1774,000000	89,915001
1773,000000	89,912979
1772,000000	89,908080
1771,000000	89,895213
1770,000000	89,894080
1769,000000	89,892390
1768,000000	89,869822
1767,000000	89,888520
1766,000000	89,862337
1765,000000	89,841573
1764,000000	89,831503
1763,000000	89,851689
1762,000000	89,802689
1761,000000	89,809429
1760,000000	89,792474
1759,000000	89,792934
1758,000000	89,797881
1757,000000	89,801921
1756,000000	89,766291
1755,000000	89,758705
1754,000000	89,737383
1753,000000	89,749253
1752,000000	89,694079
1751,000000	89,711926
1750,000000	89,665016
1749,000000	89,679964
1748,000000	89,637925
1747,000000	89,630322
1746,000000	89,632937
1745,000000	89,607841
1744,000000	89,570904
1743,000000	89,611641
1742,000000	89,568311
1741,000000	89,585551
1740,000000	89,559895
1739,000000	89,570062
1738,000000	89,568138
1737,000000	89,589090
1736,000000	89,538684
1735,000000	89,527216
1734,000000	89,490035
1733,000000	89,482794
1732,000000	89,469060
1731,000000	89,486807
1730,000000	89,460017
1729,000000	89,468378
1728,000000	89,447512
1727,000000	89,451266
1726,000000	89,443852
1725,000000	89,451547
1724,000000	89,425551
1723,000000	89,418846
1722,000000	89,409549
1721,000000	89,400102
1720,000000	89,397776
1719,000000	89,402803
1718,000000	89,356649
1717,000000	89,337824
1716,000000	89,352942
1715,000000	89,350420
1714,000000	89,327634
1713,000000	89,313697
1712,000000	89,300761
1711,000000	89,273442
1710,000000	89,259238
1709,000000	89,255659
1708,000000	89,244512
1707,000000	89,231140
1706,000000	89,192832
1705,000000	89,171863
1704,000000	89,189990
1703,000000	89,158585
1702,000000	89,113739
1701,000000	89,124594
1700,000000	89,058908
1699,000000	89,060075
1698,000000	89,027665
1697,000000	89,014409
1696,000000	88,966673
1695,000000	88,963274
1694,000000	88,949743
1693,000000	88,957174
1692,000000	88,923546
1691,000000	88,909062
1690,000000	88,836630
1689,000000	88,862316
1688,000000	88,859105
1687,000000	88,879398
1686,000000	88,815833
1685,000000	88,851100
1684,000000	88,816426
1683,000000	88,818807
1682,000000	88,770579
1681,000000	88,798599
1680,000000	88,779066
1679,000000	88,758029
1678,000000	88,776593
1677,000000	88,765371
1676,000000	88,778520
1675,000000	88,799970
1674,000000	88,781142
1673,000000	88,797250
1672,000000	88,812214
1671,000000	88,816996
1670,000000	88,801353
1669,000000	88,823451
1668,000000	88,814160
1667,000000	88,845587
1666,000000	88,830868
1665,000000	88,874198
1664,000000	88,852829
1663,000000	88,900064
1662,000000	88,892947
1661,000000	88,899198
1660,000000	88,905952
1659,000000	88,932537
1658,000000	88,919525
1657,000000	88,935423
1656,000000	88,962378
1655,000000	88,974728
1654,000000	88,952754
1653,000000	88,978456
1652,000000	88,999079
1651,000000	89,000312
1650,000000	88,990577
1649,000000	89,012770
1648,000000	88,993562
1647,000000	89,011908
1646,000000	89,008869
1645,000000	89,013878
1644,000000	89,008945
1643,000000	89,036978
1642,000000	89,034406
1641,000000	89,054476
1640,000000	89,066804
1639,000000	89,062859
1638,000000	89,051569
1637,000000	89,072891
1636,000000	89,092695
1635,000000	89,117110
1634,000000	89,109126
1633,000000	89,142931
1632,000000	89,136659
1631,000000	89,142973
1630,000000	89,143980
1629,000000	89,164919
1628,000000	89,163800
1627,000000	89,179024
1626,000000	89,169878
1625,000000	89,185556
1624,000000	89,195366
1623,000000	89,201049
1622,000000	89,218085
1621,000000	89,224631
1620,000000	89,235313
1619,000000	89,242012
1618,000000	89,245530
1617,000000	89,260267
1616,000000	89,279844
1615,000000	89,287788
1614,000000	89,282749
1613,000000	89,307848
1612,000000	89,323133
1611,000000	89,327630
1610,000000	89,305526
1609,000000	89,309788
1608,000000	89,336669
1607,000000	89,342074
1606,000000	89,350662
1605,000000	89,365638
1604,000000	89,353178
1603,000000	89,364966
1602,000000	89,384153
1601,000000	89,414580
1600,000000	89,413432
1599,000000	89,413730
1598,000000	89,415409
1597,000000	89,423510
1596,000000	89,417156
1595,000000	89,420160
1594,000000	89,429737
1593,000000	89,438634
1592,000000	89,439475
1591,000000	89,457704
1590,000000	89,456529
1589,000000	89,453068
1588,000000	89,444614
1587,000000	89,448501
1586,000000	89,445667
1585,000000	89,455019
1584,000000	89,451147
1583,000000	89,464590
1582,000000	89,482923
1581,000000	89,486595
1580,000000	89,481221
1579,000000	89,478166
1578,000000	89,465113
1577,000000	89,449148
1576,000000	89,435737
1575,000000	89,434810
1574,000000	89,464636
1573,000000	89,573908
1572,000000	89,696301
1571,000000	89,824740
1570,000000	89,960282
1569,000000	90,036498
1568,000000	90,000000
1567,000000	89,875902
1566,000000	89,442700
1565,000000	88,653982
1564,000000	87,976944
1563,000000	87,655680
1562,000000	87,623570
1561,000000	87,828547
1560,000000	88,380022
1559,000000	88,941299
1558,000000	89,298480
1557,000000	89,414189
1556,000000	89,406737
1555,000000	89,305139
1554,000000	89,185332
1553,000000	89,169123
1552,000000	89,149978
1551,000000	89,141593
1550,000000	89,019501
1549,000000	88,890784
1548,000000	88,886195
1547,000000	88,977291
1546,000000	89,066330
1545,000000	89,055673
1544,000000	89,037786
1543,000000	89,038199
1542,000000	89,040459
1541,000000	89,032578
1540,000000	89,026432
1539,000000	88,887096
1538,000000	88,761754
1537,000000	88,747206
1536,000000	88,726748
1535,000000	88,828952
1534,000000	88,936498
1533,000000	88,912649
1532,000000	88,898827
1531,000000	88,891942
1530,000000	88,877479
1529,000000	88,857921
1528,000000	88,852225
1527,000000	88,825737
1526,000000	88,675595
1525,000000	88,563056
1524,000000	88,677430
1523,000000	88,758218
1522,000000	88,742574
1521,000000	88,739178
1520,000000	88,724275
1519,000000	88,706881
1518,000000	88,562914
1517,000000	88,451450
1516,000000	88,577650
1515,000000	88,654264
1514,000000	88,648652
1513,000000	88,639228
1512,000000	88,482704
1511,000000	88,382227
1510,000000	88,503492
1509,000000	88,556134
1508,000000	88,543564
1507,000000	88,528496
1506,000000	88,383687
1505,000000	88,429970
1504,000000	88,491376
1503,000000	88,468267
1502,000000	88,474251
1501,000000	88,325124
1500,000000	88,363383
1499,000000	88,413093
1498,000000	88,402165
1497,000000	88,382253
1496,000000	88,238084
1495,000000	88,135726
1494,000000	88,258120
1493,000000	88,307739
1492,000000	88,292970
1491,000000	88,276970
1490,000000	88,282163
1489,000000	88,268791
1488,000000	88,113984
1487,000000	88,020891
1486,000000	88,025373
1485,000000	88,030326
1484,000000	88,156968
1483,000000	88,192324
1482,000000	88,170980
1481,000000	88,150437
1480,000000	88,146240
1479,000000	88,148622
1478,000000	88,134019
1477,000000	88,113783
1476,000000	88,104232
1475,000000	88,093137
1474,000000	88,076946
1473,000000	88,038267
1472,000000	88,019159
1471,000000	88,005874
1470,000000	88,011050
1469,000000	87,961793
1468,000000	87,956162
1467,000000	87,809078
1466,000000	87,773672
1465,000000	87,895938
1464,000000	87,935219
1463,000000	87,914827
1462,000000	87,895706
1461,000000	87,891392
1460,000000	87,764352
1459,000000	87,851511
1458,000000	87,886332
1457,000000	87,873171
1456,000000	87,887052
1455,000000	87,878134
1454,000000	87,880826
1453,000000	87,709417
1452,000000	87,673728
1451,000000	87,665153
1450,000000	87,800942
1449,000000	87,814877
1448,000000	87,823818
1447,000000	87,829871
1446,000000	87,819330
1445,000000	87,818313
1444,000000	87,833179
1443,000000	87,840445
1442,000000	87,824025
1441,000000	87,822846
1440,000000	87,827800
1439,000000	87,831651
1438,000000	87,831035
1437,000000	87,820661
1436,000000	87,678059
1435,000000	87,684578
1434,000000	87,681725
1433,000000	87,677303
1432,000000	87,678022
1431,000000	87,667162
1430,000000	87,653097
1429,000000	87,644319
1428,000000	87,671903
1427,000000	87,672774
1426,000000	87,665565
1425,000000	87,665974
1424,000000	87,672538
1423,000000	87,687810
1422,000000	87,675593
1421,000000	87,841506
1420,000000	87,865132
1419,000000	87,837030
1418,000000	87,759536
1417,000000	87,868950
1416,000000	87,899233
1415,000000	87,749727
1414,000000	87,745618
1413,000000	87,903311
1412,000000	87,885965
1411,000000	87,723926
1410,000000	87,895393
1409,000000	87,750010
1408,000000	87,731994
1407,000000	87,757367
1406,000000	87,930353
1405,000000	87,711189
1404,000000	87,746771
1403,000000	87,774051
1402,000000	87,938912
1401,000000	87,901360
1400,000000	87,726606
1399,000000	87,695902
1398,000000	87,731754
1397,000000	87,745476
1396,000000	87,776283
1395,000000	87,781753
1394,000000	87,804238
1393,000000	87,791092
1392,000000	87,794946
1391,000000	87,787114
1390,000000	87,796311
1389,000000	87,752293
1388,000000	87,788029
1387,000000	87,767189
1386,000000	87,805274
1385,000000	87,787092
1384,000000	87,803858
1383,000000	87,812688
1382,000000	87,824925
1381,000000	87,806433
1380,000000	87,866045
1379,000000	87,831903
1378,000000	87,819871
1377,000000	87,864873
1376,000000	88,057657
1375,000000	87,869077
1374,000000	87,869746
1373,000000	87,872517
1372,000000	87,885813
1371,000000	87,848788
1370,000000	87,864741
1369,000000	87,883851
1368,000000	87,867381
1367,000000	87,854192
1366,000000	87,854318
1365,000000	87,834996
1364,000000	87,812859
1363,000000	87,772292
1362,000000	87,767493
1361,000000	87,734257
1360,000000	87,736057
1359,000000	87,900731
1358,000000	87,698270
1357,000000	87,669015
1356,000000	87,704648
1355,000000	87,892783
1354,000000	87,848737
1353,000000	87,633747
1352,000000	87,622983
1351,000000	87,675561
1350,000000	87,840962
1349,000000	87,805661
1348,000000	87,664891
1347,000000	87,655071
1346,000000	87,688638
1345,000000	87,831071
1344,000000	87,781755
1343,000000	87,789317
1342,000000	87,778983
1341,000000	87,733580
1340,000000	87,666004
1339,000000	87,775359
1338,000000	87,738037
1337,000000	87,713026
1336,000000	87,713997
1335,000000	87,676151
1334,000000	87,603089
1333,000000	87,680324
1332,000000	87,679667
1331,000000	87,656182
1330,000000	87,637529
1329,000000	87,614440
1328,000000	87,622866
1327,000000	87,586109
1326,000000	87,571300
1325,000000	87,552215
1324,000000	87,556629
1323,000000	87,528476
1322,000000	87,506892
1321,000000	87,476332
1320,000000	87,459306
1319,000000	87,417720
1318,000000	87,419889
1317,000000	87,368204
1316,000000	87,299350
1315,000000	87,334471
1314,000000	87,312871
1313,000000	87,286824
1312,000000	87,258123
1311,000000	87,236962
1310,000000	87,225680
1309,000000	87,199893
1308,000000	87,182966
1307,000000	87,127174
1306,000000	87,026418
1305,000000	86,991207
1304,000000	86,977807
1303,000000	86,950390
1302,000000	86,918490
1301,000000	86,897395
1300,000000	86,904783
1299,000000	86,953288
1298,000000	86,946322
1297,000000	86,911936
1296,000000	86,894058
1295,000000	86,861710
1294,000000	86,850150
1293,000000	86,852237
1292,000000	86,828546
1291,000000	86,818398
1290,000000	86,771980
1289,000000	86,707085
1288,000000	86,759892
1287,000000	86,742477
1286,000000	86,721809
1285,000000	86,707613
1284,000000	86,703265
1283,000000	86,636643
1282,000000	86,585838
1281,000000	86,631310
1280,000000	86,609425
1279,000000	86,585866
1278,000000	86,584440
1277,000000	86,579095
1276,000000	86,569222
1275,000000	86,542464
1274,000000	86,530853
1273,000000	86,515774
1272,000000	86,504148
1271,000000	86,483966
1270,000000	86,455694
1269,000000	86,438930
1268,000000	86,430919
1267,000000	86,394361
1266,000000	86,395279
1265,000000	86,425286
1264,000000	86,407010
1263,000000	86,392819
1262,000000	86,380966
1261,000000	86,381466
1260,000000	86,383969
1259,000000	86,365947
1258,000000	86,345249
1257,000000	86,341024
1256,000000	86,345214
1255,000000	86,330037
1254,000000	86,326528
1253,000000	86,345649
1252,000000	86,321498
1251,000000	86,311457
1250,000000	86,357209
1249,000000	86,363491
1248,000000	86,370265
1247,000000	86,376738
1246,000000	86,394497
1245,000000	86,349532
1244,000000	86,336628
1243,000000	86,385934
1242,000000	86,381999
1241,000000	86,389992
1240,000000	86,396834
1239,000000	86,414403
1238,000000	86,440755
1237,000000	86,438009
1236,000000	86,443697
1235,000000	86,460736
1234,000000	86,460790
1233,000000	86,462548
1232,000000	86,475142
1231,000000	86,484459
1230,000000	86,492598
1229,000000	86,518134
1228,000000	86,515429
1227,000000	86,521584
1226,000000	86,547925
1225,000000	86,571704
1224,000000	86,595047
1223,000000	86,607706
1222,000000	86,560266
1221,000000	86,558017
1220,000000	86,614153
1219,000000	86,648315
1218,000000	86,657612
1217,000000	86,672082
1216,000000	86,680171
1215,000000	86,688760
1214,000000	86,698397
1213,000000	86,724866
1212,000000	86,683167
1211,000000	86,713342
1210,000000	86,763272
1209,000000	86,774787
1208,000000	86,772225
1207,000000	86,772070
1206,000000	86,770623
1205,000000	86,797726
1204,000000	86,799429
1203,000000	86,810265
1202,000000	86,815643
1201,000000	86,830489
1200,000000	86,828585
1199,000000	86,833182
1198,000000	86,837333
1197,000000	86,860088
1196,000000	86,853181
1195,000000	86,797082
1194,000000	86,774577
1193,000000	86,770702
1192,000000	86,771023
1191,000000	86,792938
1190,000000	86,814918
1189,000000	86,829451
1188,000000	86,823384
1187,000000	86,816615
1186,000000	86,812035
1185,000000	86,807941
1184,000000	86,777516
1183,000000	86,738495
1182,000000	86,677271
1181,000000	86,622956
1180,000000	86,587917
1179,000000	86,595324
1178,000000	86,574746
1177,000000	86,541420
1176,000000	86,481870
1175,000000	86,481725
1174,000000	86,460250
1173,000000	86,467276
1172,000000	86,451502
1171,000000	86,456855
1170,000000	86,439150
1169,000000	86,387175
1168,000000	86,350794
1167,000000	86,322443
1166,000000	86,288912
1165,000000	86,285309
1164,000000	86,266977
1163,000000	86,251935
1162,000000	86,214947
1161,000000	86,194440
1160,000000	86,160888
1159,000000	86,139552
1158,000000	86,092253
1157,000000	86,081079
1156,000000	86,082727
1155,000000	86,045663
1154,000000	86,000427
1153,000000	85,982162
1152,000000	85,950597
1151,000000	85,946141
1150,000000	85,896545
1149,000000	85,875567
1148,000000	85,838027
1147,000000	85,817486
1146,000000	85,777547
1145,000000	85,762244
1144,000000	85,719007
1143,000000	85,718929
1142,000000	85,690352
1141,000000	85,657018
1140,000000	85,615868
1139,000000	85,602582
1138,000000	85,583708
1137,000000	85,579608
1136,000000	85,544713
1135,000000	85,539748
1134,000000	85,513184
1133,000000	85,500581
1132,000000	85,487800
1131,000000	85,475461
1130,000000	85,443269
1129,000000	85,444088
1128,000000	85,424618
1127,000000	85,384675
1126,000000	85,374689
1125,000000	85,285165
1124,000000	85,333816
1123,000000	85,322716
1122,000000	85,323982
1121,000000	85,319736
1120,000000	85,297712
1119,000000	85,266888
1118,000000	85,247460
1117,000000	85,246716
1116,000000	85,234027
1115,000000	85,233643
1114,000000	85,214924
1113,000000	85,215189
1112,000000	85,205795
1111,000000	85,208709
1110,000000	85,209683
1109,000000	85,233809
1108,000000	85,203842
1107,000000	85,245048
1106,000000	85,235393
1105,000000	85,248370
1104,000000	85,251330
1103,000000	85,250506
1102,000000	85,270483
1101,000000	85,271245
1100,000000	85,268978
1099,000000	85,293209
1098,000000	85,280500
1097,000000	85,332355
1096,000000	85,313899
1095,000000	85,350598
1094,000000	85,341939
1093,000000	85,359449
1092,000000	85,364105
1091,000000	85,372748
1090,000000	85,388850
1089,000000	85,412164
1088,000000	85,421400
1087,000000	85,466369
1086,000000	85,450123
1085,000000	85,471871
1084,000000	85,486144
1083,000000	85,493163
1082,000000	85,494577
1081,000000	85,515725
1080,000000	85,532957
1079,000000	85,543004
1078,000000	85,541114
1077,000000	85,557250
1076,000000	85,554961
1075,000000	85,606922
1074,000000	85,474405
1073,000000	85,627329
1072,000000	85,617143
1071,000000	85,625803
1070,000000	85,646188
1069,000000	85,664418
1068,000000	85,669951
1067,000000	85,669282
1066,000000	85,652372
1065,000000	85,687204
1064,000000	85,699380
1063,000000	85,701898
1062,000000	85,693824
1061,000000	85,674640
1060,000000	85,561018
1059,000000	85,659808
1058,000000	85,633263
1057,000000	85,683826
1056,000000	85,696795
1055,000000	85,711338
1054,000000	85,630739
1053,000000	85,706411
1052,000000	85,705396
1051,000000	85,702972
1050,000000	85,724579
1049,000000	85,674775
1048,000000	85,763528
1047,000000	85,746477
1046,000000	85,713665
1045,000000	85,545694
1044,000000	85,525937
1043,000000	85,492160
1042,000000	85,491820
1041,000000	85,544857
1040,000000	85,456738
1039,000000	85,395022
1038,000000	85,370111
1037,000000	85,347305
1036,000000	85,228102
1035,000000	85,310678
1034,000000	85,283178
1033,000000	85,287203
1032,000000	85,217499
1031,000000	85,174238
1030,000000	85,099641
1029,000000	84,934649
1028,000000	84,977192
1027,000000	84,936444
1026,000000	84,823721
1025,000000	84,631777
1024,000000	84,699469
1023,000000	84,659804
1022,000000	84,530661
1021,000000	84,661267
1020,000000	84,628597
1019,000000	84,597448
1018,000000	84,565397
1017,000000	84,513584
1016,000000	84,400027
1015,000000	84,482982
1014,000000	84,448321
1013,000000	84,454762
1012,000000	84,375471
1011,000000	84,217816
1010,000000	84,268793
1009,000000	84,388906
1008,000000	84,373505
1007,000000	84,355007
1006,000000	84,298923
1005,000000	84,162093
1004,000000	84,189755
1003,000000	84,370072
1002,000000	84,435202
1001,000000	84,249374
1000,000000	84,109420
999,000000	84,163214
998,000000	84,285995
997,000000	84,299377
996,000000	84,247137
995,000000	84,174183
994,000000	84,312509
993,000000	84,300535
992,000000	84,244677
991,000000	84,140248
990,000000	84,218871
989,000000	84,368534
988,000000	84,316046
987,000000	84,255372
986,000000	84,327318
985,000000	84,285610
984,000000	84,415666
983,000000	84,388098
982,000000	84,304863
981,000000	84,336889
980,000000	84,419023
979,000000	84,524014
978,000000	84,631033
977,000000	84,694025
976,000000	84,722608
975,000000	84,777087
974,000000	84,826834
973,000000	84,913595
972,000000	85,049685
971,000000	85,156379
970,000000	85,136878
969,000000	85,043694
968,000000	84,993679
967,000000	85,046920
966,000000	85,096567
965,000000	85,107679
964,000000	85,133797
963,000000	85,227826
962,000000	85,276818
961,000000	85,296199
960,000000	85,290576
959,000000	85,284482
958,000000	85,891700
957,000000	0,000000
956,000000	0,000000
955,000000	0,000000
954,000000	0,000000
953,000000	0,000000
952,000000	0,000000
951,000000	0,000000
950,000000	0,000000
949,000000	0,000000
948,000000	0,000000
947,000000	0,000000
946,000000	0,000000
945,000000	0,000000
944,000000	0,000000
943,000000	0,000000
942,000000	0,000000
941,000000	0,000000
940,000000	0,000000
939,000000	0,000000
938,000000	0,000000
937,000000	0,000000
936,000000	0,000000
935,000000	0,000000
934,000000	0,000000
933,000000	0,000000
932,000000	0,000000
931,000000	0,000000
930,000000	0,000000
929,000000	0,000000
928,000000	0,000000
927,000000	0,000000
926,000000	0,000000
925,000000	0,000000
924,000000	0,000000
923,000000	0,000000
922,000000	0,000000
921,000000	0,000000
920,000000	0,000000
919,000000	0,000000
918,000000	0,000000
917,000000	0,000000
916,000000	0,000000
915,000000	0,000000
914,000000	0,000000
913,000000	0,000000
912,000000	0,000000
911,000000	0,000000
910,000000	0,000000
909,000000	0,000000
908,000000	0,000000
907,000000	0,000000
906,000000	0,000000
905,000000	0,000000
904,000000	0,000000
903,000000	0,000000
902,000000	0,000000
901,000000	0,000000
900,000000	0,000000
899,000000	0,000000
898,000000	0,000000
897,000000	0,000000
896,000000	0,000000
895,000000	0,000000
894,000000	0,000000
893,000000	0,000000
892,000000	0,000000
891,000000	0,000000
890,000000	0,000000
889,000000	0,000000
888,000000	0,000000
887,000000	0,000000
886,000000	0,000000
885,000000	0,000000
884,000000	0,000000
883,000000	0,000000
882,000000	0,000000
881,000000	0,000000
880,000000	0,000000
879,000000	0,000000
878,000000	0,000000
877,000000	0,000000
876,000000	0,000000
875,000000	0,000000
874,000000	0,000000
873,000000	0,000000
872,000000	0,000000
871,000000	0,000000
870,000000	0,000000
869,000000	0,000000
868,000000	0,000000
867,000000	0,000000
866,000000	0,000000
865,000000	0,000000
864,000000	0,000000
863,000000	0,000000
862,000000	0,000000
861,000000	0,000000
860,000000	0,000000
859,000000	0,000000
858,000000	0,000000
857,000000	0,000000
856,000000	0,000000
855,000000	0,000000
854,000000	0,000000
853,000000	0,000000
852,000000	0,000000
851,000000	0,000000
850,000000	0,000000
849,000000	0,000000
848,000000	0,000000
847,000000	0,000000
846,000000	0,000000
845,000000	0,000000
844,000000	0,000000
843,000000	0,000000
842,000000	0,000000
841,000000	0,000000
840,000000	0,000000
839,000000	0,000000
838,000000	0,000000
837,000000	0,000000
836,000000	0,000000
835,000000	0,000000
834,000000	0,000000
833,000000	0,000000
832,000000	0,000000
831,000000	0,000000
830,000000	0,000000
829,000000	0,000000
828,000000	0,000000
827,000000	0,000000
826,000000	0,000000
825,000000	0,000000
824,000000	0,000000
823,000000	0,000000
822,000000	0,000000
821,000000	0,000000
820,000000	0,000000
819,000000	0,000000
818,000000	0,000000
817,000000	0,000000
816,000000	0,000000
815,000000	0,000000
814,000000	0,000000
813,000000	0,000000
812,000000	0,000000
811,000000	0,000000
810,000000	0,000000
809,000000	0,000000
808,000000	0,000000
807,000000	0,000000
806,000000	0,000000
805,000000	0,000000
804,000000	0,000000
803,000000	0,000000
802,000000	0,000000
801,000000	0,000000
800,000000	0,000000
799,000000	0,000000
798,000000	0,000000
797,000000	0,000000
796,000000	0,000000
795,000000	0,000000
794,000000	0,000000
793,000000	0,000000
792,000000	0,000000
791,000000	0,000000
790,000000	0,000000
789,000000	0,000000
788,000000	0,000000
787,000000	0,000000
786,000000	0,000000
785,000000	0,000000
784,000000	0,000000
783,000000	0,000000
782,000000	0,000000
781,000000	0,000000
780,000000	0,000000
779,000000	0,000000
778,000000	0,000000
777,000000	0,000000
776,000000	0,000000
775,000000	0,000000
774,000000	0,000000
773,000000	0,000000
772,000000	0,000000
771,000000	0,000000
770,000000	0,000000
769,000000	0,000000
768,000000	0,000000
767,000000	0,000000
766,000000	0,000000
765,000000	0,000000
764,000000	0,000000
763,000000	0,000000
762,000000	0,000000
761,000000	0,000000
760,000000	0,000000
759,000000	0,000000
758,000000	0,000000
757,000000	0,000000
756,000000	0,000000
755,000000	0,000000
754,000000	0,000000
753,000000	0,000000
752,000000	0,000000
751,000000	0,000000
750,000000	0,000000
749,000000	0,000000
748,000000	0,000000
747,000000	0,000000
746,000000	0,000000
745,000000	0,000000
744,000000	0,000000
743,000000	0,000000
742,000000	0,000000
741,000000	0,000000
740,000000	0,000000
739,000000	0,000000
738,000000	0,000000
737,000000	0,000000
736,000000	0,000000
735,000000	0,000000
734,000000	0,000000
733,000000	0,000000
732,000000	0,000000
731,000000	0,000000
730,000000	0,000000
729,000000	0,000000
728,000000	0,000000
727,000000	0,000000
726,000000	0,000000
725,000000	0,000000
724,000000	0,000000
723,000000	0,000000
722,000000	0,000000
721,000000	0,000000
720,000000	0,000000
719,000000	0,000000
718,000000	0,000000
717,000000	0,000000
716,000000	0,000000
715,000000	0,000000
714,000000	0,000000
713,000000	0,000000
712,000000	0,000000
711,000000	0,000000
710,000000	0,000000
709,000000	0,000000
708,000000	0,000000
707,000000	0,000000
706,000000	0,000000
705,000000	0,000000
704,000000	0,000000
703,000000	0,000000
702,000000	0,000000
701,000000	0,000000
700,000000	0,000000
699,000000	0,000000
698,000000	0,000000
697,000000	0,000000
696,000000	0,000000
695,000000	0,000000
694,000000	0,000000
693,000000	0,000000
692,000000	0,000000
691,000000	0,000000
690,000000	0,000000
689,000000	0,000000
688,000000	0,000000
687,000000	0,000000
686,000000	0,000000
685,000000	0,000000
684,000000	0,000000
683,000000	0,000000
682,000000	0,000000
681,000000	0,000000
680,000000	0,000000
679,000000	0,000000
678,000000	0,000000
677,000000	0,000000
676,000000	0,000000
675,000000	0,000000
674,000000	0,000000
673,000000	0,000000
672,000000	0,000000
671,000000	0,000000
670,000000	0,000000
669,000000	0,000000
668,000000	0,000000
667,000000	0,000000
666,000000	0,000000
665,000000	0,000000
664,000000	0,000000
663,000000	0,000000
662,000000	0,000000
661,000000	0,000000
660,000000	0,000000
659,000000	0,000000
658,000000	0,000000
657,000000	0,000000
656,000000	0,000000
655,000000	0,000000
654,000000	0,000000
653,000000	0,000000
652,000000	0,000000
651,000000	0,000000
650,000000	0,000000
649,000000	0,000000
648,000000	0,000000
647,000000	0,000000
646,000000	0,000000
645,000000	0,000000
644,000000	0,000000
643,000000	0,000000
642,000000	0,000000
641,000000	0,000000
640,000000	0,000000
639,000000	0,000000
638,000000	0,000000
637,000000	0,000000
636,000000	0,000000
635,000000	0,000000
634,000000	0,000000
633,000000	0,000000
632,000000	0,000000
631,000000	0,000000
630,000000	0,000000
629,000000	0,000000
628,000000	0,000000
627,000000	0,000000
626,000000	0,000000
625,000000	0,000000
624,000000	0,000000
623,000000	0,000000
622,000000	0,000000
621,000000	0,000000
620,000000	0,000000
619,000000	0,000000
618,000000	0,000000
617,000000	0,000000
616,000000	0,000000
615,000000	0,000000
614,000000	0,000000
613,000000	0,000000
612,000000	0,000000
611,000000	0,000000
610,000000	0,000000
609,000000	0,000000
608,000000	0,000000
607,000000	0,000000
606,000000	0,000000
605,000000	0,000000
604,000000	0,000000
603,000000	0,000000
602,000000	0,000000
601,000000	0,000000
600,000000	0,000000
599,000000	0,000000
598,000000	0,000000
597,000000	0,000000
596,000000	0,000000
595,000000	0,000000
594,000000	0,000000
593,000000	0,000000
592,000000	0,000000
591,000000	0,000000
590,000000	0,000000
589,000000	0,000000
588,000000	0,000000
587,000000	0,000000
586,000000	0,000000
585,000000	0,000000
584,000000	0,000000
583,000000	0,000000
582,000000	0,000000
581,000000	0,000000
580,000000	0,000000
579,000000	0,000000
578,000000	0,000000
577,000000	0,000000
576,000000	0,000000
575,000000	0,000000
574,000000	0,000000
573,000000	0,000000
572,000000	0,000000
571,000000	0,000000
570,000000	0,000000
569,000000	0,000000
568,000000	0,000000
567,000000	0,000000
566,000000	0,000000
565,000000	0,000000
564,000000	0,000000
563,000000	0,000000
562,000000	0,000000
561,000000	0,000000
560,000000	0,000000
559,000000	0,000000
558,000000	0,000000
557,000000	0,000000
556,000000	0,000000
555,000000	0,000000
554,000000	0,000000
553,000000	0,000000
552,000000	0,000000
551,000000	0,000000
550,000000	0,000000
549,000000	0,000000
548,000000	0,000000
547,000000	0,000000
546,000000	0,000000
545,000000	0,000000
544,000000	0,000000
543,000000	0,000000
542,000000	0,000000
541,000000	0,000000
540,000000	0,000000
539,000000	0,000000
538,000000	0,000000
537,000000	0,000000
536,000000	0,000000
535,000000	0,000000
534,000000	0,000000
533,000000	0,000000
532,000000	0,000000
531,000000	0,000000
530,000000	0,000000
529,000000	0,000000
528,000000	0,000000
527,000000	0,000000
526,000000	0,000000
525,000000	0,000000
524,000000	0,000000
523,000000	0,000000
522,000000	0,000000
521,000000	0,000000
520,000000	0,000000
519,000000	0,000000
518,000000	0,000000
517,000000	0,000000
516,000000	0,000000
515,000000	0,000000
514,000000	0,000000
513,000000	0,000000
512,000000	0,000000
511,000000	0,000000
510,000000	0,000000
509,000000	0,000000
508,000000	0,000000
507,000000	0,000000
506,000000	0,000000
505,000000	0,000000
504,000000	0,000000
503,000000	0,000000
502,000000	0,000000
501,000000	0,000000
500,000000	0,000000
499,000000	0,000000
498,000000	0,000000
497,000000	0,000000
496,000000	0,000000
495,000000	0,000000
494,000000	0,000000
493,000000	0,000000
492,000000	0,000000
491,000000	0,000000
490,000000	0,000000
489,000000	0,000000
488,000000	0,000000
487,000000	0,000000
486,000000	0,000000
485,000000	0,000000
484,000000	0,000000
483,000000	0,000000
482,000000	0,000000
481,000000	0,000000
480,000000	0,000000
479,000000	0,000000
478,000000	0,000000
477,000000	0,000000
476,000000	0,000000
475,000000	0,000000
474,000000	0,000000
473,000000	0,000000
472,000000	0,000000
471,000000	0,000000
470,000000	0,000000
469,000000	0,000000
468,000000	0,000000
467,000000	0,000000
466,000000	0,000000
465,000000	0,000000
464,000000	0,000000
463,000000	0,000000
462,000000	0,000000
461,000000	0,000000
460,000000	0,000000
459,000000	0,000000
458,000000	0,000000
457,000000	0,000000
456,000000	0,000000
455,000000	0,000000
454,000000	0,000000
453,000000	0,000000
452,000000	0,000000
451,000000	0,000000
450,000000	0,000000
449,000000	0,000000
448,000000	0,000000
447,000000	0,000000
446,000000	0,000000
445,000000	0,000000
444,000000	0,000000
443,000000	0,000000
442,000000	0,000000
441,000000	0,000000
440,000000	0,000000
439,000000	0,000000
438,000000	0,000000
437,000000	0,000000
436,000000	0,000000
435,000000	0,000000
434,000000	0,000000
433,000000	0,000000
432,000000	0,000000
431,000000	0,000000
430,000000	0,000000
429,000000	0,000000
428,000000	0,000000
427,000000	0,000000
426,000000	0,000000
425,000000	0,000000
424,000000	0,000000
423,000000	0,000000
422,000000	0,000000
421,000000	0,000000
420,000000	0,000000
419,000000	0,000000
418,000000	0,000000
417,000000	0,000000
416,000000	0,000000
415,000000	0,000000
414,000000	0,000000
413,000000	0,000000
412,000000	0,000000
411,000000	0,000000
410,000000	0,000000
409,000000	0,000000
408,000000	0,000000
407,000000	0,000000
406,000000	0,000000
405,000000	0,000000
404,000000	0,000000
403,000000	0,000000
402,000000	0,000000
401,000000	0,000000
400,000000	0,000000
399,000000	0,000000
398,000000	0,000000
397,000000	0,000000
396,000000	0,000000
395,000000	0,000000
394,000000	0,000000
393,000000	0,000000
392,000000	0,000000
391,000000	0,000000
390,000000	0,000000
389,000000	0,000000
388,000000	0,000000
387,000000	0,000000
386,000000	0,000000
385,000000	0,000000
384,000000	0,000000
383,000000	0,000000
382,000000	0,000000
381,000000	0,000000
380,000000	0,000000
379,000000	0,000000
378,000000	0,000000
377,000000	0,000000
376,000000	0,000000
375,000000	0,000000
374,000000	0,000000
373,000000	0,000000
372,000000	0,000000
371,000000	0,000000
370,000000	0,000000
369,000000	0,000000
368,000000	0,000000
367,000000	0,000000
366,000000	0,000000
365,000000	0,000000
364,000000	0,000000
363,000000	0,000000
362,000000	0,000000
361,000000	0,000000
360,000000	0,000000
359,000000	0,000000
358,000000	0,000000
357,000000	0,000000
356,000000	0,000000
355,000000	0,000000
354,000000	0,000000
353,000000	0,000000
352,000000	0,000000
351,000000	0,000000
350,000000	0,000000
349,000000	0,000000
348,000000	0,000000
347,000000	0,000000
346,000000	0,000000
345,000000	0,000000
344,000000	0,000000
343,000000	0,000000
342,000000	0,000000
341,000000	0,000000
340,000000	0,000000
339,000000	0,000000
338,000000	0,000000
337,000000	0,000000
336,000000	0,000000
335,000000	0,000000
334,000000	0,000000
333,000000	0,000000
332,000000	0,000000
331,000000	0,000000
330,000000	0,000000
329,000000	0,000000
328,000000	0,000000
327,000000	0,000000
326,000000	0,000000
325,000000	0,000000
324,000000	0,000000
323,000000	0,000000
322,000000	0,000000
321,000000	0,000000
320,000000	0,000000
319,000000	0,000000
318,000000	0,000000
317,000000	0,000000
316,000000	0,000000
315,000000	0,000000
314,000000	0,000000
313,000000	0,000000
312,000000	0,000000
311,000000	0,000000
310,000000	0,000000
309,000000	0,000000
308,000000	0,000000
307,000000	0,000000
306,000000	0,000000
305,000000	0,000000
304,000000	0,000000
303,000000	0,000000
302,000000	0,000000
301,000000	0,000000
300,000000	0,000000
299,000000	0,000000
298,000000	0,000000
297,000000	0,000000
296,000000	0,000000
295,000000	0,000000
294,000000	0,000000
293,000000	0,000000
292,000000	0,000000
291,000000	0,000000
290,000000	0,000000
289,000000	0,000000
288,000000	0,000000
287,000000	0,000000
286,000000	0,000000
285,000000	0,000000
284,000000	0,000000
283,000000	0,000000
282,000000	0,000000
281,000000	0,000000
280,000000	0,000000
279,000000	0,000000
278,000000	0,000000
277,000000	0,000000
276,000000	0,000000
275,000000	0,000000
274,000000	0,000000
273,000000	0,000000
272,000000	0,000000
271,000000	0,000000
270,000000	0,000000
269,000000	0,000000
268,000000	0,000000
267,000000	0,000000
266,000000	0,000000
265,000000	0,000000
264,000000	0,000000
263,000000	0,000000
262,000000	0,000000
261,000000	0,000000
260,000000	0,000000
259,000000	0,000000
258,000000	0,000000
257,000000	0,000000
256,000000	0,000000
255,000000	0,000000
254,000000	0,000000
253,000000	0,000000
252,000000	0,000000
251,000000	0,000000
250,000000	0,000000
249,000000	0,000000
248,000000	0,000000
247,000000	0,000000
246,000000	0,000000
245,000000	0,000000
244,000000	0,000000
243,000000	0,000000
242,000000	0,000000
241,000000	0,000000
240,000000	0,000000
239,000000	0,000000
238,000000	0,000000
237,000000	0,000000
236,000000	0,000000
235,000000	0,000000
234,000000	0,000000
233,000000	0,000000
232,000000	0,000000
231,000000	0,000000
230,000000	0,000000
229,000000	0,000000
228,000000	0,000000
227,000000	0,000000
226,000000	0,000000
225,000000	0,000000
224,000000	0,000000
223,000000	0,000000
222,000000	0,000000
221,000000	0,000000
220,000000	0,000000
219,000000	0,000000
218,000000	0,000000
217,000000	0,000000
216,000000	0,000000
215,000000	0,000000
214,000000	0,000000
213,000000	0,000000
212,000000	0,000000
211,000000	0,000000
210,000000	0,000000
209,000000	0,000000
208,000000	0,000000
207,000000	0,000000
206,000000	0,000000
205,000000	0,000000
204,000000	0,000000
203,000000	0,000000
202,000000	0,000000
201,000000	0,000000
200,000000	0,000000
