PE UV       SUBTECH     SPECTRUM    ASCII       PEDS        4.00        
   -1
etime.Sample [Smooth].asc
22/05/06
16:11:50.00
22/05/06
16:53:40.00
Administrator

0,000000
1
Lambda 1050
1050L1808311
PerkinElmer UV WinLab 6.4.0.973 / 2.02.11 Lambda 900 UV/VIS/NIR, May 23 2018 11:23:04

0
0
3350/servo 860,8/2
0
0
UV/VIS
5
1
1
CommonBeamDepol,RBeamAtt,SBeamAtt,60mm sphere
0
0
0
300
Program
 
0
3350/0,2 860,8/0,2
0
0
0
 
 
 
0
 
860,8
319,2
860,8
Front
100
on
S:100 R:100
 
0
0
0
 
0
 
 
 
0
 
 
0
0
0
0
0
 
 
 
 
0
0


0
0
#HDR
-1
-1
#GR
s
A
1.0
0.0
2400,000000
-5,000000
481
8
0,002885
0,002306
#DATA
2400,000000	0,002885
2395,000000	0,002880
2390,000000	0,002867
2385,000000	0,002860
2380,000000	0,002856
2375,000000	0,002847
2370,000000	0,002843
2365,000000	0,002839
2360,000000	0,002830
2355,000000	0,002830
2350,000000	0,002826
2345,000000	0,002824
2340,000000	0,002821
2335,000000	0,002821
2330,000000	0,002825
2325,000000	0,002821
2320,000000	0,002820
2315,000000	0,002817
2310,000000	0,002822
2305,000000	0,002825
2300,000000	0,002818
2295,000000	0,002811
2290,000000	0,002803
2285,000000	0,002798
2280,000000	0,002789
2275,000000	0,002781
2270,000000	0,002777
2265,000000	0,002771
2260,000000	0,002765
2255,000000	0,002755
2250,000000	0,002750
2245,000000	0,002736
2240,000000	0,002714
2235,000000	0,002704
2230,000000	0,002694
2225,000000	0,002686
2220,000000	0,002673
2215,000000	0,002666
2210,000000	0,002656
2205,000000	0,002655
2200,000000	0,002652
2195,000000	0,002644
2190,000000	0,002638
2185,000000	0,002636
2180,000000	0,002626
2175,000000	0,002618
2170,000000	0,002613
2165,000000	0,002600
2160,000000	0,002594
2155,000000	0,002582
2150,000000	0,002574
2145,000000	0,002561
2140,000000	0,002556
2135,000000	0,002550
2130,000000	0,002540
2125,000000	0,002537
2120,000000	0,002524
2115,000000	0,002509
2110,000000	0,002488
2105,000000	0,002482
2100,000000	0,002475
2095,000000	0,002475
2090,000000	0,002472
2085,000000	0,002471
2080,000000	0,002477
2075,000000	0,002474
2070,000000	0,002474
2065,000000	0,002478
2060,000000	0,002480
2055,000000	0,002479
2050,000000	0,002475
2045,000000	0,002467
2040,000000	0,002468
2035,000000	0,002470
2030,000000	0,002471
2025,000000	0,002470
2020,000000	0,002458
2015,000000	0,002453
2010,000000	0,002448
2005,000000	0,002450
2000,000000	0,002444
1995,000000	0,002437
1990,000000	0,002426
1985,000000	0,002420
1980,000000	0,002413
1975,000000	0,002406
1970,000000	0,002400
1965,000000	0,002391
1960,000000	0,002383
1955,000000	0,002377
1950,000000	0,002371
1945,000000	0,002365
1940,000000	0,002374
1935,000000	0,002381
1930,000000	0,002386
1925,000000	0,002389
1920,000000	0,002390
1915,000000	0,002388
1910,000000	0,002385
1905,000000	0,002386
1900,000000	0,002384
1895,000000	0,002391
1890,000000	0,002389
1885,000000	0,002392
1880,000000	0,002386
1875,000000	0,002388
1870,000000	0,002385
1865,000000	0,002378
1860,000000	0,002375
1855,000000	0,002373
1850,000000	0,002375
1845,000000	0,002384
1840,000000	0,002387
1835,000000	0,002386
1830,000000	0,002381
1825,000000	0,002385
1820,000000	0,002383
1815,000000	0,002385
1810,000000	0,002393
1805,000000	0,002396
1800,000000	0,002392
1795,000000	0,002395
1790,000000	0,002395
1785,000000	0,002396
1780,000000	0,002396
1775,000000	0,002395
1770,000000	0,002397
1765,000000	0,002399
1760,000000	0,002396
1755,000000	0,002397
1750,000000	0,002395
1745,000000	0,002391
1740,000000	0,002382
1735,000000	0,002382
1730,000000	0,002376
1725,000000	0,002376
1720,000000	0,002374
1715,000000	0,002369
1710,000000	0,002372
1705,000000	0,002364
1700,000000	0,002363
1695,000000	0,002364
1690,000000	0,002361
1685,000000	0,002362
1680,000000	0,002362
1675,000000	0,002366
1670,000000	0,002364
1665,000000	0,002369
1660,000000	0,002374
1655,000000	0,002375
1650,000000	0,002377
1645,000000	0,002378
1640,000000	0,002376
1635,000000	0,002372
1630,000000	0,002375
1625,000000	0,002366
1620,000000	0,002364
1615,000000	0,002368
1610,000000	0,002360
1605,000000	0,002359
1600,000000	0,002356
1595,000000	0,002349
1590,000000	0,002340
1585,000000	0,002333
1580,000000	0,002329
1575,000000	0,002327
1570,000000	0,002321
1565,000000	0,002316
1560,000000	0,002310
1555,000000	0,002309
1550,000000	0,002308
1545,000000	0,002312
1540,000000	0,002311
1535,000000	0,002309
1530,000000	0,002312
1525,000000	0,002313
1520,000000	0,002307
1515,000000	0,002306
1510,000000	0,002308
1505,000000	0,002310
1500,000000	0,002318
1495,000000	0,002319
1490,000000	0,002317
1485,000000	0,002317
1480,000000	0,002319
1475,000000	0,002328
1470,000000	0,002329
1465,000000	0,002332
1460,000000	0,002325
1455,000000	0,002324
1450,000000	0,002326
1445,000000	0,002333
1440,000000	0,002332
1435,000000	0,002333
1430,000000	0,002331
1425,000000	0,002329
1420,000000	0,002339
1415,000000	0,002339
1410,000000	0,002339
1405,000000	0,002335
1400,000000	0,002339
1395,000000	0,002340
1390,000000	0,002347
1385,000000	0,002344
1380,000000	0,002337
1375,000000	0,002343
1370,000000	0,002342
1365,000000	0,002348
1360,000000	0,002350
1355,000000	0,002361
1350,000000	0,002360
1345,000000	0,002362
1340,000000	0,002366
1335,000000	0,002366
1330,000000	0,002366
1325,000000	0,002371
1320,000000	0,002367
1315,000000	0,002370
1310,000000	0,002370
1305,000000	0,002373
1300,000000	0,002366
1295,000000	0,002368
1290,000000	0,002362
1285,000000	0,002366
1280,000000	0,002365
1275,000000	0,002372
1270,000000	0,002370
1265,000000	0,002371
1260,000000	0,002369
1255,000000	0,002372
1250,000000	0,002370
1245,000000	0,002366
1240,000000	0,002366
1235,000000	0,002368
1230,000000	0,002371
1225,000000	0,002372
1220,000000	0,002374
1215,000000	0,002381
1210,000000	0,002383
1205,000000	0,002389
1200,000000	0,002395
1195,000000	0,002396
1190,000000	0,002395
1185,000000	0,002393
1180,000000	0,002389
1175,000000	0,002391
1170,000000	0,002393
1165,000000	0,002394
1160,000000	0,002401
1155,000000	0,002404
1150,000000	0,002405
1145,000000	0,002406
1140,000000	0,002405
1135,000000	0,002405
1130,000000	0,002406
1125,000000	0,002408
1120,000000	0,002412
1115,000000	0,002409
1110,000000	0,002415
1105,000000	0,002412
1100,000000	0,002400
1095,000000	0,002401
1090,000000	0,002396
1085,000000	0,002404
1080,000000	0,002401
1075,000000	0,002406
1070,000000	0,002405
1065,000000	0,002410
1060,000000	0,002411
1055,000000	0,002413
1050,000000	0,002414
1045,000000	0,002414
1040,000000	0,002416
1035,000000	0,002417
1030,000000	0,002421
1025,000000	0,002420
1020,000000	0,002426
1015,000000	0,002427
1010,000000	0,002428
1005,000000	0,002431
1000,000000	0,002430
995,000000	0,002437
990,000000	0,002438
985,000000	0,002441
980,000000	0,002442
975,000000	0,002441
970,000000	0,002444
965,000000	0,002443
960,000000	0,002451
955,000000	0,002455
950,000000	0,002452
945,000000	0,002455
940,000000	0,002453
935,000000	0,002460
930,000000	0,002458
925,000000	0,002465
920,000000	0,002460
915,000000	0,002459
910,000000	0,002455
905,000000	0,002454
900,000000	0,002456
895,000000	0,002457
890,000000	0,002461
885,000000	0,002454
880,000000	0,002462
875,000000	0,002466
870,000000	0,002467
865,000000	0,002468
860,000000	0,002466
855,000000	0,002466
850,000000	0,002464
845,000000	0,002471
840,000000	0,002474
835,000000	0,002467
830,000000	0,002466
825,000000	0,002466
820,000000	0,002464
815,000000	0,002468
810,000000	0,002469
805,000000	0,002469
800,000000	0,002467
795,000000	0,002464
790,000000	0,002469
785,000000	0,002469
780,000000	0,002468
775,000000	0,002468
770,000000	0,002470
765,000000	0,002467
760,000000	0,002467
755,000000	0,002462
750,000000	0,002468
745,000000	0,002475
740,000000	0,002474
735,000000	0,002468
730,000000	0,002463
725,000000	0,002463
720,000000	0,002463
715,000000	0,002468
710,000000	0,002468
705,000000	0,002463
700,000000	0,002453
695,000000	0,002459
690,000000	0,002462
685,000000	0,002464
680,000000	0,002470
675,000000	0,002467
670,000000	0,002466
665,000000	0,002466
660,000000	0,002472
655,000000	0,002472
650,000000	0,002473
645,000000	0,002471
640,000000	0,002475
635,000000	0,002479
630,000000	0,002477
625,000000	0,002483
620,000000	0,002484
615,000000	0,002483
610,000000	0,002479
605,000000	0,002482
600,000000	0,002487
595,000000	0,002487
590,000000	0,002490
585,000000	0,002491
580,000000	0,002487
575,000000	0,002491
570,000000	0,002495
565,000000	0,002494
560,000000	0,002492
555,000000	0,002501
550,000000	0,002504
545,000000	0,002510
540,000000	0,002506
535,000000	0,002506
530,000000	0,002499
525,000000	0,002499
520,000000	0,002498
515,000000	0,002506
510,000000	0,002508
505,000000	0,002520
500,000000	0,002524
495,000000	0,002524
490,000000	0,002526
485,000000	0,002525
480,000000	0,002526
475,000000	0,002530
470,000000	0,002530
465,000000	0,002536
460,000000	0,002537
455,000000	0,002540
450,000000	0,002548
445,000000	0,002551
440,000000	0,002556
435,000000	0,002563
430,000000	0,002569
425,000000	0,002569
420,000000	0,002568
415,000000	0,002570
410,000000	0,002571
405,000000	0,002564
400,000000	0,002569
395,000000	0,002571
390,000000	0,002582
385,000000	0,002586
380,000000	0,002592
375,000000	0,002598
370,000000	0,002604
365,000000	0,002599
360,000000	0,002598
355,000000	0,002602
350,000000	0,002595
345,000000	0,002604
340,000000	0,002606
335,000000	0,002617
330,000000	0,002620
325,000000	0,002624
320,000000	0,002628
315,000000	0,002629
310,000000	0,002626
305,000000	0,002625
300,000000	0,002627
295,000000	0,002630
290,000000	0,002625
285,000000	0,002622
280,000000	0,002624
275,000000	0,002617
270,000000	0,002616
265,000000	0,002616
260,000000	0,002618
255,000000	0,002625
250,000000	0,002625
245,000000	0,002627
240,000000	0,002633
235,000000	0,002630
230,000000	0,002630
225,000000	0,002631
220,000000	0,002637
215,000000	0,002637
210,000000	0,002643
205,000000	0,002649
200,000000	0,002654
195,000000	0,002656
190,000000	0,002652
185,000000	0,002652
180,000000	0,002654
175,000000	0,002661
170,000000	0,002662
165,000000	0,002667
160,000000	0,002669
155,000000	0,002672
150,000000	0,002670
145,000000	0,002669
140,000000	0,002675
135,000000	0,002671
130,000000	0,002671
125,000000	0,002675
120,000000	0,002679
115,000000	0,002680
110,000000	0,002687
105,000000	0,002694
100,000000	0,002695
95,000000	0,002696
90,000000	0,002706
85,000000	0,002707
80,000000	0,002713
75,000000	0,002718
70,000000	0,002716
65,000000	0,002718
60,000000	0,002721
55,000000	0,002727
50,000000	0,002731
45,000000	0,002730
40,000000	0,002738
35,000000	0,002745
30,000000	0,002749
25,000000	0,002748
20,000000	0,002754
15,000000	0,002757
10,000000	0,002768
5,000000	0,002772
0,000000	0,002775
