PE UV       SUBTECH     SPECTRUM    ASCII       PEDS        4.00        
   -1
a.Sample.asc
22/03/23
14:43:51.00
22/03/23
14:43:51.00
Administrator

200,000000
1
Lambda 1050
1050L1808311
PerkinElmer UV WinLab 6.4.0.973 / 2.02.11 Lambda 900 UV/VIS/NIR, May 23 2018 11:23:04

0
0
3350/servo 1800,8/servo 860,8/2
0
0
UV/VIS
1
1
1
CommonBeamDepol,RBeamAtt,SBeamAtt,uv/vis/nir detector, TDS WB InGaAs Detector
0
0
0
0
Program
Program
3350/servo 1800,8/servo 860,8/2
3350/0,2 1800,8/0,2 860,8/0,2
3350/0,2 1800,8/0,2 860,8/0,2
0
3350/1,00 1800,8/1,00
 
 
 
0
 
860,8
319,2
1800,8 860,8
Front
100
on
S:100 R:100
 
0
0
0
 
0
 
 
 
0
 
 
0
0
0
0
0
 
 
 
 
0
0


0
0
#HDR
-1
-1
#GR
nm
%T
1.0
0.0
2000,000000
-1,000000
1801
8
24,649363
0,272537
#DATA
2000,000000	24,649363
1999,000000	24,639952
1998,000000	24,575397
1997,000000	24,589934
1996,000000	24,537673
1995,000000	24,522583
1994,000000	24,464933
1993,000000	24,454892
1992,000000	24,406911
1991,000000	24,400609
1990,000000	24,332559
1989,000000	24,337516
1988,000000	24,274364
1987,000000	24,273805
1986,000000	24,199801
1985,000000	24,197923
1984,000000	24,136708
1983,000000	24,137097
1982,000000	24,077082
1981,000000	24,065019
1980,000000	24,007179
1979,000000	24,005064
1978,000000	23,953816
1977,000000	23,937827
1976,000000	23,883252
1975,000000	23,878522
1974,000000	23,834845
1973,000000	23,830684
1972,000000	23,776744
1971,000000	23,761700
1970,000000	23,706760
1969,000000	23,704165
1968,000000	23,635952
1967,000000	23,639590
1966,000000	23,590443
1965,000000	23,565174
1964,000000	23,522793
1963,000000	23,518912
1962,000000	23,460748
1961,000000	23,455625
1960,000000	23,400741
1959,000000	23,374480
1958,000000	23,331573
1957,000000	23,328320
1956,000000	23,278645
1955,000000	23,259813
1954,000000	23,204326
1953,000000	23,200247
1952,000000	23,147657
1951,000000	23,130882
1950,000000	23,084821
1949,000000	23,078131
1948,000000	23,020587
1947,000000	22,994619
1946,000000	22,948895
1945,000000	22,918154
1944,000000	22,838574
1943,000000	22,812247
1942,000000	22,759242
1941,000000	22,737353
1940,000000	22,663852
1939,000000	22,643512
1938,000000	22,612150
1937,000000	22,608092
1936,000000	22,565059
1935,000000	22,542139
1934,000000	22,500686
1933,000000	22,479448
1932,000000	22,428175
1931,000000	22,406945
1930,000000	22,356341
1929,000000	22,346869
1928,000000	22,311357
1927,000000	22,297167
1926,000000	22,253623
1925,000000	22,240102
1924,000000	22,189456
1923,000000	22,162767
1922,000000	22,114113
1921,000000	22,107816
1920,000000	22,048961
1919,000000	22,028732
1918,000000	22,009216
1917,000000	21,974520
1916,000000	21,923782
1915,000000	21,886813
1914,000000	21,840851
1913,000000	21,813946
1912,000000	21,778845
1911,000000	21,780987
1910,000000	21,747773
1909,000000	21,716957
1908,000000	21,670185
1907,000000	21,623746
1906,000000	21,583794
1905,000000	21,555374
1904,000000	21,526462
1903,000000	21,525419
1902,000000	21,493482
1901,000000	21,447228
1900,000000	21,389181
1899,000000	21,355896
1898,000000	21,345138
1897,000000	21,337032
1896,000000	21,308909
1895,000000	21,282291
1894,000000	21,223031
1893,000000	21,171991
1892,000000	21,135801
1891,000000	21,118423
1890,000000	21,079604
1889,000000	21,048643
1888,000000	21,010640
1887,000000	20,983191
1886,000000	20,939396
1885,000000	20,898655
1884,000000	20,863917
1883,000000	20,841872
1882,000000	20,807147
1881,000000	20,786182
1880,000000	20,745295
1879,000000	20,717259
1878,000000	20,666177
1877,000000	20,626612
1876,000000	20,578118
1875,000000	20,547411
1874,000000	20,529292
1873,000000	20,511233
1872,000000	20,488765
1871,000000	20,462716
1870,000000	20,421173
1869,000000	20,394164
1868,000000	20,373649
1867,000000	20,335214
1866,000000	20,289372
1865,000000	20,270988
1864,000000	20,238051
1863,000000	20,195513
1862,000000	20,145233
1861,000000	20,113194
1860,000000	20,089650
1859,000000	20,042110
1858,000000	20,016745
1857,000000	20,015239
1856,000000	19,983769
1855,000000	19,938327
1854,000000	19,892087
1853,000000	19,850753
1852,000000	19,825459
1851,000000	19,802299
1850,000000	19,767014
1849,000000	19,732749
1848,000000	19,692497
1847,000000	19,650647
1846,000000	19,639467
1845,000000	19,637658
1844,000000	19,608911
1843,000000	19,549399
1842,000000	19,495016
1841,000000	19,437344
1840,000000	19,410665
1839,000000	19,410334
1838,000000	19,410688
1837,000000	19,367130
1836,000000	19,324293
1835,000000	19,291414
1834,000000	19,263776
1833,000000	19,237724
1832,000000	19,205570
1831,000000	19,160323
1830,000000	19,123438
1829,000000	19,089450
1828,000000	19,069575
1827,000000	19,035552
1826,000000	19,003785
1825,000000	18,974250
1824,000000	18,938211
1823,000000	18,901586
1822,000000	18,865508
1821,000000	18,811274
1820,000000	18,776794
1819,000000	18,778401
1818,000000	18,790551
1817,000000	18,747163
1816,000000	18,698645
1815,000000	18,648762
1814,000000	18,620460
1813,000000	18,587166
1812,000000	18,573943
1811,000000	18,536483
1810,000000	18,501509
1809,000000	18,467191
1808,000000	18,441728
1807,000000	18,392640
1806,000000	18,375544
1805,000000	18,338705
1804,000000	18,312870
1803,000000	18,285660
1802,000000	18,262771
1801,000000	18,213440
1800,000000	17,665222
1799,000000	17,632733
1798,000000	17,603590
1797,000000	17,575218
1796,000000	17,544831
1795,000000	17,513308
1794,000000	17,485905
1793,000000	17,456428
1792,000000	17,425899
1791,000000	17,397568
1790,000000	17,369684
1789,000000	17,341091
1788,000000	17,309546
1787,000000	17,279533
1786,000000	17,250789
1785,000000	17,221586
1784,000000	17,191568
1783,000000	17,160111
1782,000000	17,127735
1781,000000	17,094569
1780,000000	17,062248
1779,000000	17,031965
1778,000000	17,000871
1777,000000	16,973016
1776,000000	16,947178
1775,000000	16,918948
1774,000000	16,884494
1773,000000	16,852722
1772,000000	16,821659
1771,000000	16,785538
1770,000000	16,751730
1769,000000	16,725692
1768,000000	16,701062
1767,000000	16,668911
1766,000000	16,633692
1765,000000	16,599869
1764,000000	16,567509
1763,000000	16,537716
1762,000000	16,508702
1761,000000	16,480216
1760,000000	16,448293
1759,000000	16,416761
1758,000000	16,387879
1757,000000	16,358146
1756,000000	16,328216
1755,000000	16,297247
1754,000000	16,266950
1753,000000	16,236070
1752,000000	16,205615
1751,000000	16,176348
1750,000000	16,147772
1749,000000	16,119341
1748,000000	16,088970
1747,000000	16,058260
1746,000000	16,027322
1745,000000	15,998846
1744,000000	15,970748
1743,000000	15,942487
1742,000000	15,913508
1741,000000	15,883570
1740,000000	15,852473
1739,000000	15,822695
1738,000000	15,792788
1737,000000	15,762975
1736,000000	15,734910
1735,000000	15,705969
1734,000000	15,675874
1733,000000	15,646056
1732,000000	15,617895
1731,000000	15,589187
1730,000000	15,558846
1729,000000	15,528915
1728,000000	15,501705
1727,000000	15,474796
1726,000000	15,445937
1725,000000	15,418362
1724,000000	15,392394
1723,000000	15,364861
1722,000000	15,335372
1721,000000	15,302279
1720,000000	15,271333
1719,000000	15,243154
1718,000000	15,214338
1717,000000	15,185556
1716,000000	15,157757
1715,000000	15,129177
1714,000000	15,101076
1713,000000	15,072167
1712,000000	15,042677
1711,000000	15,013742
1710,000000	14,985149
1709,000000	14,956718
1708,000000	14,928589
1707,000000	14,901562
1706,000000	14,871146
1705,000000	14,838581
1704,000000	14,808145
1703,000000	14,778920
1702,000000	14,749618
1701,000000	14,721054
1700,000000	14,693570
1699,000000	14,666059
1698,000000	14,636531
1697,000000	14,605807
1696,000000	14,574854
1695,000000	14,545612
1694,000000	14,518278
1693,000000	14,491774
1692,000000	14,464060
1691,000000	14,435365
1690,000000	14,405683
1689,000000	14,377485
1688,000000	14,350499
1687,000000	14,322467
1686,000000	14,294095
1685,000000	14,266540
1684,000000	14,238501
1683,000000	14,210464
1682,000000	14,182675
1681,000000	14,155505
1680,000000	14,128790
1679,000000	14,101334
1678,000000	14,073850
1677,000000	14,046706
1676,000000	14,018937
1675,000000	13,991358
1674,000000	13,963894
1673,000000	13,937120
1672,000000	13,912514
1671,000000	13,887549
1670,000000	13,859577
1669,000000	13,832194
1668,000000	13,806441
1667,000000	13,779644
1666,000000	13,754485
1665,000000	13,730410
1664,000000	13,703692
1663,000000	13,674393
1662,000000	13,645919
1661,000000	13,618807
1660,000000	13,591056
1659,000000	13,563742
1658,000000	13,536813
1657,000000	13,509438
1656,000000	13,483352
1655,000000	13,457306
1654,000000	13,430433
1653,000000	13,403431
1652,000000	13,376306
1651,000000	13,348685
1650,000000	13,320083
1649,000000	13,290897
1648,000000	13,263015
1647,000000	13,239986
1646,000000	13,218651
1645,000000	13,192794
1644,000000	13,164072
1643,000000	13,136006
1642,000000	13,108871
1641,000000	13,080891
1640,000000	13,053153
1639,000000	13,025265
1638,000000	12,996801
1637,000000	12,970254
1636,000000	12,942922
1635,000000	12,914594
1634,000000	12,886522
1633,000000	12,859344
1632,000000	12,832459
1631,000000	12,805549
1630,000000	12,779194
1629,000000	12,752304
1628,000000	12,724142
1627,000000	12,695720
1626,000000	12,667983
1625,000000	12,641977
1624,000000	12,616752
1623,000000	12,589800
1622,000000	12,562369
1621,000000	12,534204
1620,000000	12,505796
1619,000000	12,478651
1618,000000	12,451934
1617,000000	12,424431
1616,000000	12,396837
1615,000000	12,369333
1614,000000	12,342413
1613,000000	12,314647
1612,000000	12,285075
1611,000000	12,256436
1610,000000	12,229082
1609,000000	12,203092
1608,000000	12,177349
1607,000000	12,150819
1606,000000	12,123288
1605,000000	12,095770
1604,000000	12,068408
1603,000000	12,041390
1602,000000	12,013376
1601,000000	11,985780
1600,000000	11,957952
1599,000000	11,928635
1598,000000	11,899093
1597,000000	11,873001
1596,000000	11,846150
1595,000000	11,819430
1594,000000	11,793088
1593,000000	11,766142
1592,000000	11,739014
1591,000000	11,711676
1590,000000	11,685569
1589,000000	11,656745
1588,000000	11,626375
1587,000000	11,598380
1586,000000	11,571675
1585,000000	11,543549
1584,000000	11,516063
1583,000000	11,489014
1582,000000	11,462308
1581,000000	11,434961
1580,000000	11,407038
1579,000000	11,379359
1578,000000	11,352361
1577,000000	11,326309
1576,000000	11,300218
1575,000000	11,272691
1574,000000	11,246307
1573,000000	11,220207
1572,000000	11,193551
1571,000000	11,166934
1570,000000	11,140381
1569,000000	11,113860
1568,000000	11,086432
1567,000000	11,059787
1566,000000	11,033025
1565,000000	11,006192
1564,000000	10,977548
1563,000000	10,950227
1562,000000	10,923144
1561,000000	10,897418
1560,000000	10,871751
1559,000000	10,845349
1558,000000	10,817787
1557,000000	10,806611
1556,000000	10,791248
1555,000000	10,767198
1554,000000	10,741954
1553,000000	10,715343
1552,000000	10,689520
1551,000000	10,662942
1550,000000	10,636654
1549,000000	10,609244
1548,000000	10,581660
1547,000000	10,555517
1546,000000	10,529265
1545,000000	10,502883
1544,000000	10,477301
1543,000000	10,450487
1542,000000	10,423841
1541,000000	10,396929
1540,000000	10,370334
1539,000000	10,344174
1538,000000	10,318395
1537,000000	10,293021
1536,000000	10,266754
1535,000000	10,239194
1534,000000	10,212365
1533,000000	10,186235
1532,000000	10,160295
1531,000000	10,134575
1530,000000	10,108271
1529,000000	10,081336
1528,000000	10,054686
1527,000000	10,029073
1526,000000	10,003810
1525,000000	9,978012
1524,000000	9,951888
1523,000000	9,926517
1522,000000	9,900297
1521,000000	9,874445
1520,000000	9,848212
1519,000000	9,822069
1518,000000	9,796042
1517,000000	9,770264
1516,000000	9,745499
1515,000000	9,719600
1514,000000	9,693890
1513,000000	9,669848
1512,000000	9,643670
1511,000000	9,617161
1510,000000	9,591810
1509,000000	9,566225
1508,000000	9,540599
1507,000000	9,515145
1506,000000	9,490086
1505,000000	9,463729
1504,000000	9,439241
1503,000000	9,414266
1502,000000	9,389103
1501,000000	9,363955
1500,000000	9,339878
1499,000000	9,315616
1498,000000	9,291455
1497,000000	9,266714
1496,000000	9,242292
1495,000000	9,217476
1494,000000	9,193686
1493,000000	9,168724
1492,000000	9,143343
1491,000000	9,118617
1490,000000	9,094167
1489,000000	9,069907
1488,000000	9,047047
1487,000000	9,023425
1486,000000	8,999532
1485,000000	8,975473
1484,000000	8,948530
1483,000000	8,924765
1482,000000	8,901957
1481,000000	8,878881
1480,000000	8,854599
1479,000000	8,830764
1478,000000	8,806973
1477,000000	8,783648
1476,000000	8,760147
1475,000000	8,736766
1474,000000	8,713239
1473,000000	8,690003
1472,000000	8,666396
1471,000000	8,641747
1470,000000	8,618528
1469,000000	8,593812
1468,000000	8,569851
1467,000000	8,547536
1466,000000	8,525182
1465,000000	8,502666
1464,000000	8,484005
1463,000000	8,468037
1462,000000	8,441292
1461,000000	8,411684
1460,000000	8,388441
1459,000000	8,365798
1458,000000	8,341972
1457,000000	8,319660
1456,000000	8,298406
1455,000000	8,276491
1454,000000	8,253813
1453,000000	8,230831
1452,000000	8,208477
1451,000000	8,185690
1450,000000	8,164403
1449,000000	8,143366
1448,000000	8,120683
1447,000000	8,097092
1446,000000	8,075544
1445,000000	8,053787
1444,000000	8,033846
1443,000000	8,012935
1442,000000	7,986622
1441,000000	7,966050
1440,000000	7,945477
1439,000000	7,924962
1438,000000	7,904682
1437,000000	7,883859
1436,000000	7,862752
1435,000000	7,841767
1434,000000	7,821029
1433,000000	7,800922
1432,000000	7,780494
1431,000000	7,759489
1430,000000	7,739005
1429,000000	7,718312
1428,000000	7,697927
1427,000000	7,677142
1426,000000	7,656510
1425,000000	7,636071
1424,000000	7,615373
1423,000000	7,593888
1422,000000	7,573274
1421,000000	7,552490
1420,000000	7,531420
1419,000000	7,512365
1418,000000	7,491996
1417,000000	7,472082
1416,000000	7,451307
1415,000000	7,430357
1414,000000	7,410574
1413,000000	7,390614
1412,000000	7,370391
1411,000000	7,350500
1410,000000	7,329960
1409,000000	7,309747
1408,000000	7,290970
1407,000000	7,270949
1406,000000	7,250575
1405,000000	7,229984
1404,000000	7,208785
1403,000000	7,188185
1402,000000	7,167888
1401,000000	7,148168
1400,000000	7,128618
1399,000000	7,109641
1398,000000	7,091328
1397,000000	7,072959
1396,000000	7,053610
1395,000000	7,034285
1394,000000	7,014949
1393,000000	6,995156
1392,000000	6,975185
1391,000000	6,955080
1390,000000	6,935568
1389,000000	6,915757
1388,000000	6,896019
1387,000000	6,876499
1386,000000	6,856806
1385,000000	6,837398
1384,000000	6,818242
1383,000000	6,798740
1382,000000	6,779649
1381,000000	6,760834
1380,000000	6,742385
1379,000000	6,724211
1378,000000	6,706038
1377,000000	6,688106
1376,000000	6,670927
1375,000000	6,653315
1374,000000	6,635013
1373,000000	6,616504
1372,000000	6,598529
1371,000000	6,581121
1370,000000	6,563187
1369,000000	6,544369
1368,000000	6,525992
1367,000000	6,508084
1366,000000	6,489433
1365,000000	6,469451
1364,000000	6,449661
1363,000000	6,430322
1362,000000	6,411788
1361,000000	6,393173
1360,000000	6,373859
1359,000000	6,354108
1358,000000	6,334391
1357,000000	6,315179
1356,000000	6,296605
1355,000000	6,278411
1354,000000	6,260492
1353,000000	6,243017
1352,000000	6,225400
1351,000000	6,207953
1350,000000	6,190209
1349,000000	6,173295
1348,000000	6,157005
1347,000000	6,140352
1346,000000	6,124072
1345,000000	6,108862
1344,000000	6,094373
1343,000000	6,079047
1342,000000	6,063016
1341,000000	6,046618
1340,000000	6,029800
1339,000000	6,013421
1338,000000	5,996910
1337,000000	5,981257
1336,000000	5,971001
1335,000000	5,953904
1334,000000	5,932946
1333,000000	5,916897
1332,000000	5,900271
1331,000000	5,883028
1330,000000	5,865654
1329,000000	5,848599
1328,000000	5,832531
1327,000000	5,816600
1326,000000	5,800272
1325,000000	5,783810
1324,000000	5,766904
1323,000000	5,750493
1322,000000	5,734114
1321,000000	5,717342
1320,000000	5,700513
1319,000000	5,684235
1318,000000	5,667999
1317,000000	5,650954
1316,000000	5,639565
1315,000000	5,620408
1314,000000	5,600283
1313,000000	5,584072
1312,000000	5,567757
1311,000000	5,551751
1310,000000	5,534965
1309,000000	5,516833
1308,000000	5,499719
1307,000000	5,483197
1306,000000	5,467015
1305,000000	5,451022
1304,000000	5,434721
1303,000000	5,418632
1302,000000	5,402075
1301,000000	5,385811
1300,000000	5,370100
1299,000000	5,354380
1298,000000	5,338612
1297,000000	5,323043
1296,000000	5,307675
1295,000000	5,291655
1294,000000	5,275839
1293,000000	5,260359
1292,000000	5,250680
1291,000000	5,232697
1290,000000	5,215795
1289,000000	5,201350
1288,000000	5,187210
1287,000000	5,172578
1286,000000	5,157571
1285,000000	5,142464
1284,000000	5,133907
1283,000000	5,116009
1282,000000	5,099212
1281,000000	5,084861
1280,000000	5,070769
1279,000000	5,056605
1278,000000	5,042627
1277,000000	5,028596
1276,000000	5,014190
1275,000000	5,000363
1274,000000	4,986180
1273,000000	4,971487
1272,000000	4,957411
1271,000000	4,942625
1270,000000	4,928926
1269,000000	4,914872
1268,000000	4,900734
1267,000000	4,886235
1266,000000	4,871650
1265,000000	4,863087
1264,000000	4,845087
1263,000000	4,830083
1262,000000	4,816204
1261,000000	4,802440
1260,000000	4,789071
1259,000000	4,775756
1258,000000	4,762559
1257,000000	4,749087
1256,000000	4,736150
1255,000000	4,723460
1254,000000	4,710712
1253,000000	4,697701
1252,000000	4,684884
1251,000000	4,672862
1250,000000	4,659962
1249,000000	4,647221
1248,000000	4,635142
1247,000000	4,623003
1246,000000	4,610895
1245,000000	4,598996
1244,000000	4,587644
1243,000000	4,575547
1242,000000	4,563712
1241,000000	4,552426
1240,000000	4,540853
1239,000000	4,528745
1238,000000	4,522084
1237,000000	4,505743
1236,000000	4,493368
1235,000000	4,482742
1234,000000	4,471529
1233,000000	4,465767
1232,000000	4,449909
1231,000000	4,437951
1230,000000	4,427087
1229,000000	4,416257
1228,000000	4,404485
1227,000000	4,393314
1226,000000	4,381942
1225,000000	4,369798
1224,000000	4,359573
1223,000000	4,349416
1222,000000	4,338986
1221,000000	4,327906
1220,000000	4,322218
1219,000000	4,308109
1218,000000	4,297883
1217,000000	4,287474
1216,000000	4,277055
1215,000000	4,267469
1214,000000	4,257837
1213,000000	4,248974
1212,000000	4,239500
1211,000000	4,229696
1210,000000	4,220231
1209,000000	4,210131
1208,000000	4,201350
1207,000000	4,192779
1206,000000	4,183682
1205,000000	4,174803
1204,000000	4,166253
1203,000000	4,157417
1202,000000	4,148795
1201,000000	4,140360
1200,000000	4,132404
1199,000000	4,124757
1198,000000	4,116286
1197,000000	4,107871
1196,000000	4,099091
1195,000000	4,090969
1194,000000	4,083087
1193,000000	4,075201
1192,000000	4,066646
1191,000000	4,058235
1190,000000	4,049855
1189,000000	4,041924
1188,000000	4,034250
1187,000000	4,026537
1186,000000	4,018482
1185,000000	4,011304
1184,000000	4,003686
1183,000000	3,996678
1182,000000	3,989493
1181,000000	3,982297
1180,000000	3,975079
1179,000000	3,967387
1178,000000	3,959900
1177,000000	3,953348
1176,000000	3,946467
1175,000000	3,939161
1174,000000	3,932875
1173,000000	3,926835
1172,000000	3,920313
1171,000000	3,913234
1170,000000	3,905915
1169,000000	3,899142
1168,000000	3,892749
1167,000000	3,886226
1166,000000	3,879973
1165,000000	3,873648
1164,000000	3,866945
1163,000000	3,860833
1162,000000	3,854730
1161,000000	3,848284
1160,000000	3,842307
1159,000000	3,836739
1158,000000	3,831220
1157,000000	3,825104
1156,000000	3,818800
1155,000000	3,813459
1154,000000	3,807723
1153,000000	3,801885
1152,000000	3,796142
1151,000000	3,790104
1150,000000	3,784432
1149,000000	3,779051
1148,000000	3,773683
1147,000000	3,767969
1146,000000	3,762444
1145,000000	3,757835
1144,000000	3,752449
1143,000000	3,746849
1142,000000	3,741875
1141,000000	3,737142
1140,000000	3,731531
1139,000000	3,726679
1138,000000	3,721783
1137,000000	3,717323
1136,000000	3,712373
1135,000000	3,707443
1134,000000	3,702783
1133,000000	3,698180
1132,000000	3,693475
1131,000000	3,688535
1130,000000	3,684285
1129,000000	3,679639
1128,000000	3,675390
1127,000000	3,671343
1126,000000	3,666958
1125,000000	3,662483
1124,000000	3,657921
1123,000000	3,653778
1122,000000	3,649713
1121,000000	3,645812
1120,000000	3,641935
1119,000000	3,638511
1118,000000	3,635110
1117,000000	3,631326
1116,000000	3,627538
1115,000000	3,623904
1114,000000	3,620068
1113,000000	3,616540
1112,000000	3,612752
1111,000000	3,609253
1110,000000	3,605905
1109,000000	3,603252
1108,000000	3,599962
1107,000000	3,596769
1106,000000	3,593918
1105,000000	3,591200
1104,000000	3,587803
1103,000000	3,584847
1102,000000	3,582278
1101,000000	3,579798
1100,000000	3,576851
1099,000000	3,574105
1098,000000	3,571069
1097,000000	3,568199
1096,000000	3,566150
1095,000000	3,563857
1094,000000	3,561651
1093,000000	3,559284
1092,000000	3,556815
1091,000000	3,554700
1090,000000	3,552759
1089,000000	3,551173
1088,000000	3,549587
1087,000000	3,547783
1086,000000	3,545782
1085,000000	3,544307
1084,000000	3,543328
1083,000000	3,542464
1082,000000	3,541496
1081,000000	3,540427
1080,000000	3,539155
1079,000000	3,537704
1078,000000	3,536645
1077,000000	3,536139
1076,000000	3,535637
1075,000000	3,534709
1074,000000	3,534203
1073,000000	3,533906
1072,000000	3,533079
1071,000000	3,533058
1070,000000	3,532891
1069,000000	3,532419
1068,000000	3,532335
1067,000000	3,532033
1066,000000	3,532426
1065,000000	3,533351
1064,000000	3,533571
1063,000000	3,534167
1062,000000	3,535052
1061,000000	3,535442
1060,000000	3,535341
1059,000000	3,535886
1058,000000	3,537102
1057,000000	3,538183
1056,000000	3,538567
1055,000000	3,539074
1054,000000	3,540425
1053,000000	3,542171
1052,000000	3,544070
1051,000000	3,545532
1050,000000	3,547407
1049,000000	3,549535
1048,000000	3,551318
1047,000000	3,552954
1046,000000	3,554527
1045,000000	3,556295
1044,000000	3,558290
1043,000000	3,560338
1042,000000	3,562353
1041,000000	3,564369
1040,000000	3,566266
1039,000000	3,567881
1038,000000	3,570194
1037,000000	3,572849
1036,000000	3,575840
1035,000000	3,578830
1034,000000	3,581921
1033,000000	3,585073
1032,000000	3,587979
1031,000000	3,590736
1030,000000	3,593741
1029,000000	3,597006
1028,000000	3,599881
1027,000000	3,602962
1026,000000	3,606343
1025,000000	3,609806
1024,000000	3,613432
1023,000000	3,617158
1022,000000	3,621165
1021,000000	3,625045
1020,000000	3,628926
1019,000000	3,633245
1018,000000	3,637237
1017,000000	3,640956
1016,000000	3,644352
1015,000000	3,648065
1014,000000	3,652480
1013,000000	3,656748
1012,000000	3,661109
1011,000000	3,665438
1010,000000	3,669732
1009,000000	3,673761
1008,000000	3,678020
1007,000000	3,682694
1006,000000	3,687624
1005,000000	3,691676
1004,000000	3,696064
1003,000000	3,700650
1002,000000	3,705591
1001,000000	3,710139
1000,000000	3,714731
999,000000	3,719332
998,000000	3,724140
997,000000	3,729098
996,000000	3,733849
995,000000	3,739324
994,000000	3,744266
993,000000	3,748999
992,000000	3,753318
991,000000	3,758149
990,000000	3,763525
989,000000	3,768221
988,000000	3,773482
987,000000	3,779355
986,000000	3,784661
985,000000	3,789172
984,000000	3,794883
983,000000	3,800477
982,000000	3,805848
981,000000	3,811579
980,000000	3,816937
979,000000	3,822015
978,000000	3,826705
977,000000	3,832889
976,000000	3,838235
975,000000	3,843998
974,000000	3,849878
973,000000	3,855433
972,000000	3,860025
971,000000	3,866539
970,000000	3,872311
969,000000	3,878993
968,000000	3,884754
967,000000	3,890550
966,000000	3,896368
965,000000	3,902045
964,000000	3,908229
963,000000	3,913673
962,000000	3,919232
961,000000	3,925682
960,000000	3,932083
959,000000	3,938368
958,000000	3,944693
957,000000	3,951229
956,000000	3,957828
955,000000	3,964051
954,000000	3,970586
953,000000	3,977427
952,000000	3,983517
951,000000	3,990543
950,000000	3,998421
949,000000	4,004927
948,000000	4,012435
947,000000	4,018772
946,000000	4,025193
945,000000	4,032247
944,000000	4,039305
943,000000	4,046252
942,000000	4,053764
941,000000	4,061883
940,000000	4,068582
939,000000	4,076731
938,000000	4,084150
937,000000	4,092135
936,000000	4,100072
935,000000	4,108134
934,000000	4,116214
933,000000	4,124235
932,000000	4,132602
931,000000	4,140483
930,000000	4,149455
929,000000	4,157487
928,000000	4,166045
927,000000	4,174203
926,000000	4,183383
925,000000	4,191507
924,000000	4,200169
923,000000	4,207795
922,000000	4,217919
921,000000	4,225748
920,000000	4,234764
919,000000	4,242893
918,000000	4,252140
917,000000	4,262977
916,000000	4,271286
915,000000	4,280169
914,000000	4,288338
913,000000	4,299732
912,000000	4,308343
911,000000	4,316807
910,000000	4,326992
909,000000	4,339413
908,000000	4,349528
907,000000	4,358226
906,000000	4,367876
905,000000	4,377231
904,000000	4,388466
903,000000	4,399432
902,000000	4,407787
901,000000	4,417817
900,000000	4,425981
899,000000	4,438202
898,000000	4,446545
897,000000	4,454885
896,000000	4,468182
895,000000	4,477345
894,000000	4,488655
893,000000	4,499300
892,000000	4,506660
891,000000	4,516109
890,000000	4,528588
889,000000	4,538158
888,000000	4,547986
887,000000	4,556547
886,000000	4,569537
885,000000	4,580118
884,000000	4,590131
883,000000	4,595700
882,000000	4,609364
881,000000	4,620053
880,000000	4,630797
879,000000	4,638827
878,000000	4,650431
877,000000	4,665207
876,000000	4,668235
875,000000	4,677242
874,000000	4,686086
873,000000	4,700345
872,000000	4,706752
871,000000	4,712761
870,000000	4,724569
869,000000	4,737065
868,000000	4,747036
867,000000	4,757065
866,000000	4,766936
865,000000	4,774364
864,000000	4,784187
863,000000	4,794544
862,000000	4,805224
861,000000	4,815459
860,000000	5,206502
859,000000	5,190468
858,000000	5,174671
857,000000	5,200385
856,000000	5,203667
855,000000	5,212584
854,000000	5,224912
853,000000	5,219870
852,000000	5,242193
851,000000	5,252362
850,000000	5,269404
849,000000	5,272428
848,000000	5,274867
847,000000	5,285376
846,000000	5,301333
845,000000	5,300971
844,000000	5,309626
843,000000	5,317603
842,000000	5,329579
841,000000	5,332325
840,000000	5,334722
839,000000	5,352335
838,000000	5,359044
837,000000	5,359811
836,000000	5,367854
835,000000	5,379625
834,000000	5,384751
833,000000	5,392849
832,000000	5,399535
831,000000	5,411370
830,000000	5,417064
829,000000	5,418958
828,000000	5,428789
827,000000	5,433683
826,000000	5,442362
825,000000	5,459744
824,000000	5,473034
823,000000	5,480219
822,000000	5,480150
821,000000	5,489328
820,000000	5,502322
819,000000	5,508329
818,000000	5,520232
817,000000	5,527436
816,000000	5,543243
815,000000	5,552124
814,000000	5,562142
813,000000	5,566114
812,000000	5,577835
811,000000	5,590232
810,000000	5,595231
809,000000	5,604447
808,000000	5,614246
807,000000	5,629015
806,000000	5,635251
805,000000	5,641149
804,000000	5,650479
803,000000	5,662162
802,000000	5,670201
801,000000	5,679108
800,000000	5,685397
799,000000	5,695966
798,000000	5,700873
797,000000	5,713007
796,000000	5,722598
795,000000	5,729767
794,000000	5,738930
793,000000	5,747847
792,000000	5,753657
791,000000	5,757719
790,000000	5,764755
789,000000	5,772412
788,000000	5,783139
787,000000	5,789051
786,000000	5,798572
785,000000	5,804683
784,000000	5,809173
783,000000	5,814630
782,000000	5,820256
781,000000	5,826554
780,000000	5,832556
779,000000	5,841898
778,000000	5,846186
777,000000	5,853418
776,000000	5,857230
775,000000	5,860662
774,000000	5,867437
773,000000	5,877771
772,000000	5,881389
771,000000	5,887982
770,000000	5,894023
769,000000	5,903350
768,000000	5,907972
767,000000	5,913573
766,000000	5,922556
765,000000	5,930204
764,000000	5,934453
763,000000	5,941723
762,000000	5,949887
761,000000	5,955047
760,000000	5,961483
759,000000	5,964821
758,000000	5,971492
757,000000	5,979197
756,000000	5,987987
755,000000	5,994098
754,000000	5,999914
753,000000	6,008584
752,000000	6,012198
751,000000	6,016970
750,000000	6,025196
749,000000	6,032403
748,000000	6,038589
747,000000	6,041546
746,000000	6,050271
745,000000	6,058359
744,000000	6,061320
743,000000	6,065891
742,000000	6,075343
741,000000	6,081242
740,000000	6,082742
739,000000	6,086753
738,000000	6,093181
737,000000	6,099248
736,000000	6,103534
735,000000	6,108208
734,000000	6,112419
733,000000	6,117091
732,000000	6,121413
731,000000	6,125438
730,000000	6,129050
729,000000	6,132993
728,000000	6,135431
727,000000	6,137165
726,000000	6,141488
725,000000	6,147045
724,000000	6,148323
723,000000	6,148350
722,000000	6,149008
721,000000	6,150376
720,000000	6,150426
719,000000	6,150947
718,000000	6,153879
717,000000	6,154121
716,000000	6,154787
715,000000	6,155820
714,000000	6,153625
713,000000	6,154487
712,000000	6,157254
711,000000	6,159517
710,000000	6,160306
709,000000	6,161126
708,000000	6,162399
707,000000	6,161292
706,000000	6,160471
705,000000	6,160468
704,000000	6,162084
703,000000	6,163164
702,000000	6,161406
701,000000	6,161313
700,000000	6,163809
699,000000	6,163253
698,000000	6,162288
697,000000	6,164274
696,000000	6,165194
695,000000	6,164144
694,000000	6,165165
693,000000	6,166789
692,000000	6,166909
691,000000	6,166929
690,000000	6,167844
689,000000	6,168323
688,000000	6,167461
687,000000	6,168513
686,000000	6,168399
685,000000	6,166416
684,000000	6,166309
683,000000	6,165047
682,000000	6,163478
681,000000	6,163705
680,000000	6,163515
679,000000	6,163036
678,000000	6,161416
677,000000	6,157103
676,000000	6,154628
675,000000	6,151935
674,000000	6,144595
673,000000	6,137076
672,000000	6,133436
671,000000	6,129315
670,000000	6,125890
669,000000	6,120151
668,000000	6,115619
667,000000	6,110684
666,000000	6,106283
665,000000	6,100948
664,000000	6,094775
663,000000	6,087792
662,000000	6,082206
661,000000	6,076583
660,000000	6,069209
659,000000	6,062525
658,000000	6,057054
657,000000	6,049524
656,000000	6,040371
655,000000	6,034129
654,000000	6,029181
653,000000	6,021107
652,000000	6,014943
651,000000	6,009124
650,000000	6,001823
649,000000	5,995565
648,000000	5,989900
647,000000	5,984110
646,000000	5,978054
645,000000	5,972599
644,000000	5,965715
643,000000	5,957016
642,000000	5,950650
641,000000	5,946112
640,000000	5,938784
639,000000	5,934137
638,000000	5,923901
637,000000	5,918151
636,000000	5,911056
635,000000	5,902883
634,000000	5,899115
633,000000	5,892821
632,000000	5,884810
631,000000	5,873543
630,000000	5,868534
629,000000	5,859909
628,000000	5,850629
627,000000	5,843835
626,000000	5,832230
625,000000	5,821842
624,000000	5,810938
623,000000	5,801089
622,000000	5,789617
621,000000	5,779836
620,000000	5,767584
619,000000	5,752965
618,000000	5,742457
617,000000	5,730715
616,000000	5,720803
615,000000	5,707967
614,000000	5,697849
613,000000	5,684913
612,000000	5,675319
611,000000	5,662853
610,000000	5,651111
609,000000	5,642757
608,000000	5,630201
607,000000	5,621187
606,000000	5,609967
605,000000	5,598866
604,000000	5,589364
603,000000	5,583254
602,000000	5,572766
601,000000	5,563982
600,000000	5,553714
599,000000	5,543401
598,000000	5,537718
597,000000	5,527116
596,000000	5,517512
595,000000	5,510637
594,000000	5,502333
593,000000	5,491561
592,000000	5,482357
591,000000	5,474208
590,000000	5,465473
589,000000	5,454766
588,000000	5,445466
587,000000	5,434394
586,000000	5,424985
585,000000	5,412048
584,000000	5,406107
583,000000	5,392991
582,000000	5,383922
581,000000	5,372545
580,000000	5,361913
579,000000	5,349153
578,000000	5,340099
577,000000	5,328354
576,000000	5,319216
575,000000	5,309184
574,000000	5,299338
573,000000	5,287098
572,000000	5,278006
571,000000	5,269593
570,000000	5,262338
569,000000	5,256192
568,000000	5,248715
567,000000	5,239419
566,000000	5,233331
565,000000	5,228783
564,000000	5,221379
563,000000	5,216388
562,000000	5,202757
561,000000	5,196799
560,000000	5,190969
559,000000	5,187841
558,000000	5,184981
557,000000	5,179903
556,000000	5,175613
555,000000	5,169038
554,000000	5,165597
553,000000	5,163998
552,000000	5,159643
551,000000	5,155491
550,000000	5,150393
549,000000	5,147835
548,000000	5,143547
547,000000	5,139887
546,000000	5,135986
545,000000	5,132166
544,000000	5,129451
543,000000	5,127822
542,000000	5,124845
541,000000	5,126634
540,000000	5,123620
539,000000	5,123489
538,000000	5,123852
537,000000	5,124646
536,000000	5,125838
535,000000	5,127754
534,000000	5,130856
533,000000	5,137133
532,000000	5,139968
531,000000	5,142851
530,000000	5,147661
529,000000	5,153345
528,000000	5,158293
527,000000	5,161807
526,000000	5,168576
525,000000	5,172236
524,000000	5,175141
523,000000	5,182489
522,000000	5,185779
521,000000	5,189575
520,000000	5,194041
519,000000	5,201960
518,000000	5,205683
517,000000	5,210542
516,000000	5,212871
515,000000	5,214380
514,000000	5,216951
513,000000	5,221739
512,000000	5,226159
511,000000	5,232838
510,000000	5,236620
509,000000	5,241778
508,000000	5,248109
507,000000	5,255192
506,000000	5,262069
505,000000	5,270850
504,000000	5,278575
503,000000	5,285572
502,000000	5,297134
501,000000	5,303562
500,000000	5,310905
499,000000	5,318011
498,000000	5,330484
497,000000	5,339701
496,000000	5,345626
495,000000	5,357001
494,000000	5,364795
493,000000	5,373698
492,000000	5,383935
491,000000	5,392039
490,000000	5,402119
489,000000	5,412429
488,000000	5,423735
487,000000	5,433933
486,000000	5,445318
485,000000	5,460582
484,000000	5,471856
483,000000	5,484739
482,000000	5,500552
481,000000	5,520029
480,000000	5,541712
479,000000	5,563529
478,000000	5,581450
477,000000	5,596469
476,000000	5,608347
475,000000	5,623709
474,000000	5,637905
473,000000	5,647423
472,000000	5,657438
471,000000	5,666354
470,000000	5,676089
469,000000	5,681715
468,000000	5,685478
467,000000	5,688963
466,000000	5,693496
465,000000	5,695552
464,000000	5,696288
463,000000	5,695334
462,000000	5,694107
461,000000	5,692828
460,000000	5,687964
459,000000	5,684132
458,000000	5,679210
457,000000	5,672651
456,000000	5,664980
455,000000	5,655243
454,000000	5,644691
453,000000	5,631889
452,000000	5,616340
451,000000	5,599844
450,000000	5,584742
449,000000	5,565735
448,000000	5,547106
447,000000	5,528916
446,000000	5,508739
445,000000	5,485832
444,000000	5,461474
443,000000	5,438733
442,000000	5,418672
441,000000	5,397432
440,000000	5,375523
439,000000	5,354113
438,000000	5,328151
437,000000	5,300680
436,000000	5,270274
435,000000	5,238769
434,000000	5,207096
433,000000	5,172637
432,000000	5,136299
431,000000	5,099496
430,000000	5,058159
429,000000	5,013632
428,000000	4,963213
427,000000	4,909206
426,000000	4,846328
425,000000	4,773241
424,000000	4,691598
423,000000	4,594709
422,000000	4,485478
421,000000	4,363075
420,000000	4,232626
419,000000	4,092900
418,000000	3,945868
417,000000	3,799085
416,000000	3,654146
415,000000	3,514864
414,000000	3,385436
413,000000	3,269123
412,000000	3,164813
411,000000	3,072352
410,000000	2,992977
409,000000	2,927526
408,000000	2,873598
407,000000	2,831069
406,000000	2,795268
405,000000	2,764853
404,000000	2,740957
403,000000	2,721763
402,000000	2,704622
401,000000	2,690681
400,000000	2,679248
399,000000	2,666753
398,000000	2,654234
397,000000	2,641686
396,000000	2,628832
395,000000	2,615490
394,000000	2,603619
393,000000	2,590209
392,000000	2,576726
391,000000	2,564121
390,000000	2,549783
389,000000	2,535752
388,000000	2,524600
387,000000	2,515599
386,000000	2,505808
385,000000	2,494763
384,000000	2,486450
383,000000	2,480009
382,000000	2,476628
381,000000	2,472817
380,000000	2,469070
379,000000	2,420794
378,000000	2,347018
377,000000	2,329905
376,000000	2,337412
375,000000	2,346446
374,000000	2,354219
373,000000	2,354433
372,000000	2,353743
371,000000	2,356468
370,000000	2,350250
369,000000	2,344287
368,000000	2,340265
367,000000	2,331180
366,000000	2,318323
365,000000	2,310026
364,000000	2,291597
363,000000	2,277136
362,000000	2,258810
361,000000	2,242885
360,000000	2,220212
359,000000	2,192893
358,000000	2,167785
357,000000	2,146656
356,000000	2,118255
355,000000	2,086262
354,000000	2,054871
353,000000	2,023708
352,000000	1,998443
351,000000	1,967743
350,000000	1,933682
349,000000	1,903820
348,000000	1,875585
347,000000	1,848894
346,000000	1,821667
345,000000	1,796835
344,000000	1,772329
343,000000	1,748385
342,000000	1,721194
341,000000	1,696880
340,000000	1,678904
339,000000	1,657943
338,000000	1,638187
337,000000	1,615880
336,000000	1,595592
335,000000	1,574476
334,000000	1,557318
333,000000	1,542541
332,000000	1,531115
331,000000	1,516653
330,000000	1,492790
329,000000	1,477020
328,000000	1,462225
327,000000	1,442158
326,000000	1,417890
325,000000	1,397761
324,000000	1,380150
323,000000	1,361460
322,000000	1,338465
321,000000	1,332004
320,000000	1,313922
319,000000	1,298576
318,000000	1,282738
317,000000	1,272129
316,000000	1,258160
315,000000	1,246973
314,000000	1,237483
313,000000	1,228045
312,000000	1,217294
311,000000	1,213437
310,000000	1,209018
309,000000	1,199442
308,000000	1,193729
307,000000	1,193419
306,000000	1,191472
305,000000	1,189692
304,000000	1,187027
303,000000	1,185925
302,000000	1,188216
301,000000	1,187405
300,000000	1,183972
299,000000	1,182645
298,000000	1,179307
297,000000	1,169998
296,000000	1,166673
295,000000	1,156518
294,000000	1,148430
293,000000	1,137999
292,000000	1,128160
291,000000	1,117543
290,000000	1,103008
289,000000	1,085637
288,000000	1,065329
287,000000	1,038920
286,000000	1,008704
285,000000	0,973728
284,000000	0,931630
283,000000	0,891298
282,000000	0,841070
281,000000	0,789130
280,000000	0,742710
279,000000	0,687800
278,000000	0,629601
277,000000	0,575451
276,000000	0,520082
275,000000	0,470608
274,000000	0,428386
273,000000	0,389008
272,000000	0,357104
271,000000	0,333664
270,000000	0,317145
269,000000	0,306560
268,000000	0,299238
267,000000	0,294390
266,000000	0,288556
265,000000	0,286156
264,000000	0,280969
263,000000	0,277231
262,000000	0,274463
261,000000	0,276142
260,000000	0,277234
259,000000	0,277041
258,000000	0,276861
257,000000	0,280580
256,000000	0,280197
255,000000	0,278318
254,000000	0,279179
253,000000	0,276974
252,000000	0,276307
251,000000	0,272537
250,000000	0,274738
249,000000	0,277339
248,000000	0,275774
247,000000	0,274880
246,000000	0,275484
245,000000	0,276698
244,000000	0,279273
243,000000	0,276789
242,000000	0,278356
241,000000	0,277344
240,000000	0,281102
239,000000	0,283757
238,000000	0,284237
237,000000	0,285138
236,000000	0,285950
235,000000	0,287692
234,000000	0,288954
233,000000	0,290111
232,000000	0,291755
231,000000	0,291364
230,000000	0,291400
229,000000	0,292269
228,000000	0,292608
227,000000	0,290834
226,000000	0,291071
225,000000	0,289232
224,000000	0,289386
223,000000	0,289597
222,000000	0,289535
221,000000	0,291564
220,000000	0,290905
219,000000	0,292070
218,000000	0,292068
217,000000	0,291391
216,000000	0,291026
215,000000	0,290338
214,000000	0,292286
213,000000	0,294467
212,000000	0,294315
211,000000	0,297449
210,000000	0,298409
209,000000	0,301342
208,000000	0,304375
207,000000	0,307247
206,000000	0,309720
205,000000	0,312231
204,000000	0,313417
203,000000	0,316369
202,000000	0,320410
201,000000	0,322676
200,000000	0,325652
