PE UV       SUBTECH     SPECTRUM    ASCII       PEDS        4.00        
   -1
azoom.Sample.asc
22/03/23
16:15:23.00
22/03/23
16:15:23.00
Administrator

350,000000
1
Lambda 1050
1050L1808311
PerkinElmer UV WinLab 6.4.0.973 / 2.02.11 Lambda 900 UV/VIS/NIR, May 23 2018 11:23:04

0
0
3350/servo 1800,8/servo 860,8/1
0
0
UV/VIS
1
1
1
CommonBeamDepol,RBeamAtt,SBeamAtt,uv/vis/nir detector, TDS WB InGaAs Detector
0
0
0
0
Program
 
0
3350/0,2 1800,8/0,2 860,8/0,2
0
0
0
 
 
 
0
 
860,8
319,2
1800,8 860,8
Front
100
on
S:100 R:100
 
0
0
0
 
0
 
 
 
0
 
 
0
0
0
0
0
 
 
 
 
0
0


0
0
#HDR
-1
-1
#GR
nm
%T
1.0
0.0
600,000000
-0,500000
501
8
5,794894
1,947078
#DATA
600,000000	5,675169
599,500000	5,674821
599,000000	5,672191
598,500000	5,670201
598,000000	5,663922
597,500000	5,657733
597,000000	5,650661
596,500000	5,648481
596,000000	5,644964
595,500000	5,639636
595,000000	5,634728
594,500000	5,630091
594,000000	5,624585
593,500000	5,622160
593,000000	5,618043
592,500000	5,612937
592,000000	5,612440
591,500000	5,605799
591,000000	5,600593
590,500000	5,595519
590,000000	5,591797
589,500000	5,584131
589,000000	5,577557
588,500000	5,579457
588,000000	5,571512
587,500000	5,568726
587,000000	5,560265
586,500000	5,555800
586,000000	5,551177
585,500000	5,545737
585,000000	5,538219
584,500000	5,533217
584,000000	5,529139
583,500000	5,520660
583,000000	5,514749
582,500000	5,508772
582,000000	5,502650
581,500000	5,498226
581,000000	5,495752
580,500000	5,487670
580,000000	5,480631
579,500000	5,473536
579,000000	5,467887
578,500000	5,462907
578,000000	5,455732
577,500000	5,448359
577,000000	5,443226
576,500000	5,440121
576,000000	5,434966
575,500000	5,425422
575,000000	5,421020
574,500000	5,417180
574,000000	5,414114
573,500000	5,408409
573,000000	5,403313
572,500000	5,395063
572,000000	5,388750
571,500000	5,384366
571,000000	5,378724
570,500000	5,374611
570,000000	5,369129
569,500000	5,362708
569,000000	5,362061
568,500000	5,358814
568,000000	5,350012
567,500000	5,346188
567,000000	5,341534
566,500000	5,338499
566,000000	5,335001
565,500000	5,329834
565,000000	5,324917
564,500000	5,325570
564,000000	5,322358
563,500000	5,320363
563,000000	5,315438
562,500000	5,307014
562,000000	5,298230
561,500000	5,297842
561,000000	5,297610
560,500000	5,292862
560,000000	5,289109
559,500000	5,288862
559,000000	5,287294
558,500000	5,283839
558,000000	5,281942
557,500000	5,278363
557,000000	5,277061
556,500000	5,274296
556,000000	5,271309
555,500000	5,267561
555,000000	5,265418
554,500000	5,262836
554,000000	5,259350
553,500000	5,257455
553,000000	5,257288
552,500000	5,252626
552,000000	5,249160
551,500000	5,246827
551,000000	5,246983
550,500000	5,241481
550,000000	5,241357
549,500000	5,238010
549,000000	5,235865
548,500000	5,234554
548,000000	5,231072
547,500000	5,230080
547,000000	5,228860
546,500000	5,227237
546,000000	5,226537
545,500000	5,222745
545,000000	5,219891
544,500000	5,217765
544,000000	5,215569
543,500000	5,215507
543,000000	5,214676
542,500000	5,214199
542,000000	5,211528
541,500000	5,209909
541,000000	5,208008
540,500000	5,207013
540,000000	5,207298
539,500000	5,205469
539,000000	5,205739
538,500000	5,203839
538,000000	5,203726
537,500000	5,205007
537,000000	5,205978
536,500000	5,205029
536,000000	5,204866
535,500000	5,205786
535,000000	5,206957
534,500000	5,210015
534,000000	5,211882
533,500000	5,210376
533,000000	5,212608
532,500000	5,217022
532,000000	5,218817
531,500000	5,219477
531,000000	5,221996
530,500000	5,223700
530,000000	5,225135
529,500000	5,228100
529,000000	5,230770
528,500000	5,233032
528,000000	5,234779
527,500000	5,237995
527,000000	5,241501
526,500000	5,245001
526,000000	5,248226
525,500000	5,248815
525,000000	5,251416
524,500000	5,253834
524,000000	5,254476
523,500000	5,259687
523,000000	5,264481
522,500000	5,268133
522,000000	5,270161
521,500000	5,270289
521,000000	5,271929
520,500000	5,272718
520,000000	5,273787
519,500000	5,277449
519,000000	5,279901
518,500000	5,281414
518,000000	5,281722
517,500000	5,282342
517,000000	5,284193
516,500000	5,286318
516,000000	5,287361
515,500000	5,289091
515,000000	5,289626
514,500000	5,288163
514,000000	5,290125
513,500000	5,292237
513,000000	5,291501
512,500000	5,293813
512,000000	5,296478
511,500000	5,298087
511,000000	5,298616
510,500000	5,301226
510,000000	5,302689
509,500000	5,303373
509,000000	5,306457
508,500000	5,307870
508,000000	5,311282
507,500000	5,314144
507,000000	5,320457
506,500000	5,324702
506,000000	5,327013
505,500000	5,331929
505,000000	5,334509
504,500000	5,337993
504,000000	5,342989
503,500000	5,351329
503,000000	5,353495
502,500000	5,356508
502,000000	5,364142
501,500000	5,369745
501,000000	5,374118
500,500000	5,382108
500,000000	5,386443
499,500000	5,395304
499,000000	5,399477
498,500000	5,404323
498,000000	5,410094
497,500000	5,416087
497,000000	5,424329
496,500000	5,431738
496,000000	5,435193
495,500000	5,438347
495,000000	5,447227
494,500000	5,455153
494,000000	5,457794
493,500000	5,464209
493,000000	5,471761
492,500000	5,475421
492,000000	5,479818
491,500000	5,483793
491,000000	5,492879
490,500000	5,496628
490,000000	5,500651
489,500000	5,506264
489,000000	5,511084
488,500000	5,520410
488,000000	5,527114
487,500000	5,531194
487,000000	5,536452
486,500000	5,540567
486,000000	5,548551
485,500000	5,555474
485,000000	5,564186
484,500000	5,569660
484,000000	5,580550
483,500000	5,587842
483,000000	5,591697
482,500000	5,601397
482,000000	5,609812
481,500000	5,620137
481,000000	5,630429
480,500000	5,646533
480,000000	5,655289
479,500000	5,667435
479,000000	5,681609
478,500000	5,689904
478,000000	5,697411
477,500000	5,703824
477,000000	5,711806
476,500000	5,718777
476,000000	5,724404
475,500000	5,733692
475,000000	5,739757
474,500000	5,744395
474,000000	5,750617
473,500000	5,753365
473,000000	5,761496
472,500000	5,767497
472,000000	5,766181
471,500000	5,773921
471,000000	5,775687
470,500000	5,777447
470,000000	5,781788
469,500000	5,781640
469,000000	5,784603
468,500000	5,786884
468,000000	5,789221
467,500000	5,787526
467,000000	5,786614
466,500000	5,791414
466,000000	5,790741
465,500000	5,793097
465,000000	5,792780
464,500000	5,794161
464,000000	5,794894
463,500000	5,791928
463,000000	5,794462
462,500000	5,792416
462,000000	5,790664
461,500000	5,794218
461,000000	5,790807
460,500000	5,793179
460,000000	5,791996
459,500000	5,789860
459,000000	5,789011
458,500000	5,790827
458,000000	5,787371
457,500000	5,782671
457,000000	5,783040
456,500000	5,781688
456,000000	5,778219
455,500000	5,766916
455,000000	5,766488
454,500000	5,764418
454,000000	5,754707
453,500000	5,749641
453,000000	5,743141
452,500000	5,734258
452,000000	5,730565
451,500000	5,718805
451,000000	5,710575
450,500000	5,702018
450,000000	5,694519
449,500000	5,685513
449,000000	5,670218
448,500000	5,665251
448,000000	5,653352
447,500000	5,646024
447,000000	5,629308
446,500000	5,623918
446,000000	5,617882
445,500000	5,603494
445,000000	5,589063
444,500000	5,577829
444,000000	5,565584
443,500000	5,550507
443,000000	5,543828
442,500000	5,535324
442,000000	5,525247
441,500000	5,514902
441,000000	5,500453
440,500000	5,489920
440,000000	5,474807
439,500000	5,462432
439,000000	5,451222
438,500000	5,439023
438,000000	5,425382
437,500000	5,406330
437,000000	5,386180
436,500000	5,370549
436,000000	5,357178
435,500000	5,340322
435,000000	5,320804
434,500000	5,302973
434,000000	5,290182
433,500000	5,269161
433,000000	5,249099
432,500000	5,225712
432,000000	5,207348
431,500000	5,189743
431,000000	5,170570
430,500000	5,149234
430,000000	5,128572
429,500000	5,104733
429,000000	5,086068
428,500000	5,056838
428,000000	5,034671
427,500000	5,010887
427,000000	4,980758
426,500000	4,949606
426,000000	4,914207
425,500000	4,879839
425,000000	4,841187
424,500000	4,799974
424,000000	4,756428
423,500000	4,704884
423,000000	4,655697
422,500000	4,599785
422,000000	4,543597
421,500000	4,483299
421,000000	4,417690
420,500000	4,353800
420,000000	4,279315
419,500000	4,206491
419,000000	4,134380
418,500000	4,061656
418,000000	3,989924
417,500000	3,915883
417,000000	3,840890
416,500000	3,765462
416,000000	3,690596
415,500000	3,615427
415,000000	3,541272
414,500000	3,475658
414,000000	3,411600
413,500000	3,350168
413,000000	3,290777
412,500000	3,234764
412,000000	3,182634
411,500000	3,132908
411,000000	3,087230
410,500000	3,047223
410,000000	3,007562
409,500000	2,973173
409,000000	2,943092
408,500000	2,914175
408,000000	2,883826
407,500000	2,859515
407,000000	2,842061
406,500000	2,824968
406,000000	2,806183
405,500000	2,791088
405,000000	2,778426
404,500000	2,764040
404,000000	2,755607
403,500000	2,743448
403,000000	2,731944
402,500000	2,724149
402,000000	2,717250
401,500000	2,706496
401,000000	2,701229
400,500000	2,694487
400,000000	2,687171
399,500000	2,677978
399,000000	2,675391
398,500000	2,670541
398,000000	2,664043
397,500000	2,656486
397,000000	2,649254
396,500000	2,641726
396,000000	2,635658
395,500000	2,630750
395,000000	2,625588
394,500000	2,617684
394,000000	2,608484
393,500000	2,602666
393,000000	2,598267
392,500000	2,589538
392,000000	2,580286
391,500000	2,572999
391,000000	2,566777
390,500000	2,561222
390,000000	2,555181
389,500000	2,548667
389,000000	2,540085
388,500000	2,533888
388,000000	2,528573
387,500000	2,522001
387,000000	2,515547
386,500000	2,509219
386,000000	2,507743
385,500000	2,502001
385,000000	2,493924
384,500000	2,491330
384,000000	2,489605
383,500000	2,486534
383,000000	2,484114
382,500000	2,481650
382,000000	2,478387
381,500000	2,475977
381,000000	2,474143
380,500000	2,472375
380,000000	2,470691
379,500000	2,466707
379,000000	2,437819
378,500000	2,386348
378,000000	2,364728
377,500000	2,369390
377,000000	2,372257
376,500000	2,367772
376,000000	2,373281
375,500000	2,384725
375,000000	2,386864
374,500000	2,381551
374,000000	2,386635
373,500000	2,386617
373,000000	2,378354
372,500000	2,383684
372,000000	2,391558
371,500000	2,388730
371,000000	2,384403
370,500000	2,385112
370,000000	2,383589
369,500000	2,375010
369,000000	2,373387
368,500000	2,360589
368,000000	2,362592
367,500000	2,358758
367,000000	2,350742
366,500000	2,349513
366,000000	2,348438
365,500000	2,346890
365,000000	2,336365
364,500000	2,330573
364,000000	2,316122
363,500000	2,307199
363,000000	2,301710
362,500000	2,296133
362,000000	2,279672
361,500000	2,266102
361,000000	2,255395
360,500000	2,245726
360,000000	2,233807
359,500000	2,227886
359,000000	2,224744
358,500000	2,208773
358,000000	2,195119
357,500000	2,183356
357,000000	2,172179
356,500000	2,159395
356,000000	2,139865
355,500000	2,123330
355,000000	2,110087
354,500000	2,091960
354,000000	2,074706
353,500000	2,063183
353,000000	2,045265
352,500000	2,035448
352,000000	2,015037
351,500000	1,994906
351,000000	1,984702
350,500000	1,963617
350,000000	1,947078
