PE UV       SUBTECH     SPECTRUM    ASCII       PEDS        4.00        
   -1
b.Sample.asc
22/03/23
14:55:43.00
22/03/23
14:55:43.00
Administrator

200,000000
1
Lambda 1050
1050L1808311
PerkinElmer UV WinLab 6.4.0.973 / 2.02.11 Lambda 900 UV/VIS/NIR, May 23 2018 11:23:04

0
0
3350/servo 1800,8/servo 860,8/2
0
0
UV/VIS
1
1
1
CommonBeamDepol,RBeamAtt,SBeamAtt,uv/vis/nir detector, TDS WB InGaAs Detector
0
0
0
0
Program
Program
3350/servo 1800,8/servo 860,8/2
3350/0,2 1800,8/0,2 860,8/0,2
3350/0,2 1800,8/0,2 860,8/0,2
0
3350/1,00 1800,8/1,00
 
 
 
0
 
860,8
319,2
1800,8 860,8
Front
100
on
S:100 R:100
 
0
0
0
 
0
 
 
 
0
 
 
0
0
0
0
0
 
 
 
 
0
0


0
0
#HDR
-1
-1
#GR
nm
%T
1.0
0.0
2000,000000
-1,000000
1801
8
92,449237
86,988452
#DATA
2000,000000	92,251897
1999,000000	92,264053
1998,000000	92,256519
1997,000000	92,277140
1996,000000	92,316968
1995,000000	92,276400
1994,000000	92,265500
1993,000000	92,311144
1992,000000	92,303827
1991,000000	92,291851
1990,000000	92,295374
1989,000000	92,315794
1988,000000	92,288238
1987,000000	92,278709
1986,000000	92,309991
1985,000000	92,280988
1984,000000	92,258659
1983,000000	92,287765
1982,000000	92,316430
1981,000000	92,234833
1980,000000	92,143850
1979,000000	92,108883
1978,000000	92,058707
1977,000000	92,035913
1976,000000	92,043143
1975,000000	92,056336
1974,000000	92,034558
1973,000000	92,045200
1972,000000	92,056012
1971,000000	92,085951
1970,000000	92,046637
1969,000000	92,059464
1968,000000	92,071290
1967,000000	92,058667
1966,000000	92,052041
1965,000000	92,081396
1964,000000	92,095919
1963,000000	92,083496
1962,000000	92,093662
1961,000000	92,098421
1960,000000	92,082081
1959,000000	92,067076
1958,000000	92,040830
1957,000000	92,043907
1956,000000	92,067551
1955,000000	92,068610
1954,000000	92,052269
1953,000000	92,127473
1952,000000	92,255427
1951,000000	92,328479
1950,000000	92,310522
1949,000000	92,310461
1948,000000	92,317339
1947,000000	92,318624
1946,000000	92,314834
1945,000000	92,296389
1944,000000	92,271359
1943,000000	92,296254
1942,000000	92,314831
1941,000000	92,311675
1940,000000	92,289972
1939,000000	92,287076
1938,000000	92,269293
1937,000000	92,290421
1936,000000	92,284169
1935,000000	92,301058
1934,000000	92,311344
1933,000000	92,302369
1932,000000	92,307780
1931,000000	92,293599
1930,000000	92,277437
1929,000000	92,257617
1928,000000	92,294943
1927,000000	92,305628
1926,000000	92,313592
1925,000000	92,372804
1924,000000	92,421560
1923,000000	92,385100
1922,000000	92,386201
1921,000000	92,449237
1920,000000	92,440721
1919,000000	92,399719
1918,000000	92,390532
1917,000000	92,337240
1916,000000	92,267777
1915,000000	92,299575
1914,000000	92,339904
1913,000000	92,326991
1912,000000	92,352430
1911,000000	92,378185
1910,000000	92,325660
1909,000000	92,315882
1908,000000	92,328811
1907,000000	92,258072
1906,000000	92,196962
1905,000000	92,177765
1904,000000	92,140927
1903,000000	92,138077
1902,000000	92,200510
1901,000000	92,210072
1900,000000	92,149479
1899,000000	92,165438
1898,000000	92,219637
1897,000000	92,246990
1896,000000	92,296404
1895,000000	92,336770
1894,000000	92,301243
1893,000000	92,255402
1892,000000	92,230047
1891,000000	92,216787
1890,000000	92,180670
1889,000000	92,192062
1888,000000	92,187905
1887,000000	92,190622
1886,000000	92,207391
1885,000000	92,200895
1884,000000	92,202772
1883,000000	92,227914
1882,000000	92,239347
1881,000000	92,231899
1880,000000	92,218735
1879,000000	92,201537
1878,000000	92,184446
1877,000000	92,178640
1876,000000	92,174817
1875,000000	92,181531
1874,000000	92,205717
1873,000000	92,224460
1872,000000	92,181088
1871,000000	92,154604
1870,000000	92,151832
1869,000000	92,090780
1868,000000	92,056174
1867,000000	92,091949
1866,000000	92,126137
1865,000000	92,145807
1864,000000	92,187267
1863,000000	92,228327
1862,000000	92,269887
1861,000000	92,351334
1860,000000	92,435784
1859,000000	92,440848
1858,000000	92,404912
1857,000000	92,380760
1856,000000	92,383097
1855,000000	92,381590
1854,000000	92,340765
1853,000000	92,314746
1852,000000	92,287987
1851,000000	92,263715
1850,000000	92,266316
1849,000000	92,294222
1848,000000	92,325647
1847,000000	92,292591
1846,000000	92,248326
1845,000000	92,231916
1844,000000	92,239174
1843,000000	92,291571
1842,000000	92,364101
1841,000000	92,359137
1840,000000	92,290325
1839,000000	92,231727
1838,000000	92,179967
1837,000000	92,168568
1836,000000	92,200222
1835,000000	92,225471
1834,000000	92,262664
1833,000000	92,279943
1832,000000	92,259782
1831,000000	92,239952
1830,000000	92,208426
1829,000000	92,189919
1828,000000	92,194960
1827,000000	92,212397
1826,000000	92,212150
1825,000000	92,206110
1824,000000	92,223175
1823,000000	92,230864
1822,000000	92,230335
1821,000000	92,236184
1820,000000	92,262589
1819,000000	92,269222
1818,000000	92,271909
1817,000000	92,284551
1816,000000	92,281049
1815,000000	92,271759
1814,000000	92,276927
1813,000000	92,283873
1812,000000	92,252219
1811,000000	92,207603
1810,000000	92,207371
1809,000000	92,212072
1808,000000	92,235499
1807,000000	92,266267
1806,000000	92,260510
1805,000000	92,250468
1804,000000	92,240369
1803,000000	92,229403
1802,000000	92,231421
1801,000000	92,241202
1800,000000	91,639101
1799,000000	91,635322
1798,000000	91,634435
1797,000000	91,641906
1796,000000	91,634694
1795,000000	91,631956
1794,000000	91,638236
1793,000000	91,639628
1792,000000	91,628123
1791,000000	91,635875
1790,000000	91,656862
1789,000000	91,659231
1788,000000	91,635782
1787,000000	91,629597
1786,000000	91,634126
1785,000000	91,649450
1784,000000	91,651763
1783,000000	91,641701
1782,000000	91,623500
1781,000000	91,613955
1780,000000	91,608655
1779,000000	91,616606
1778,000000	91,617155
1777,000000	91,621838
1776,000000	91,612506
1775,000000	91,617292
1774,000000	91,602825
1773,000000	91,613716
1772,000000	91,617628
1771,000000	91,628937
1770,000000	91,639495
1769,000000	91,640807
1768,000000	91,647529
1767,000000	91,644717
1766,000000	91,637286
1765,000000	91,640227
1764,000000	91,638498
1763,000000	91,639705
1762,000000	91,644687
1761,000000	91,641074
1760,000000	91,632293
1759,000000	91,619288
1758,000000	91,605352
1757,000000	91,604590
1756,000000	91,602225
1755,000000	91,605686
1754,000000	91,619009
1753,000000	91,618213
1752,000000	91,617825
1751,000000	91,616483
1750,000000	91,614891
1749,000000	91,616473
1748,000000	91,612216
1747,000000	91,606773
1746,000000	91,589276
1745,000000	91,593840
1744,000000	91,606781
1743,000000	91,616091
1742,000000	91,616479
1741,000000	91,614080
1740,000000	91,608735
1739,000000	91,603705
1738,000000	91,600612
1737,000000	91,595750
1736,000000	91,594508
1735,000000	91,594035
1734,000000	91,592934
1733,000000	91,590888
1732,000000	91,599214
1731,000000	91,601643
1730,000000	91,605072
1729,000000	91,609938
1728,000000	91,619833
1727,000000	91,632690
1726,000000	91,638453
1725,000000	91,646360
1724,000000	91,650022
1723,000000	91,657028
1722,000000	91,651523
1721,000000	91,624558
1720,000000	91,616113
1719,000000	91,614802
1718,000000	91,612886
1717,000000	91,611302
1716,000000	91,617762
1715,000000	91,620243
1714,000000	91,617678
1713,000000	91,609743
1712,000000	91,607238
1711,000000	91,609618
1710,000000	91,612990
1709,000000	91,610725
1708,000000	91,613079
1707,000000	91,625546
1706,000000	91,618998
1705,000000	91,598849
1704,000000	91,588546
1703,000000	91,586064
1702,000000	91,586108
1701,000000	91,588263
1700,000000	91,598174
1699,000000	91,615282
1698,000000	91,611691
1697,000000	91,600470
1696,000000	91,586045
1695,000000	91,576224
1694,000000	91,581417
1693,000000	91,596137
1692,000000	91,589425
1691,000000	91,570371
1690,000000	91,564087
1689,000000	91,574468
1688,000000	91,581439
1687,000000	91,580491
1686,000000	91,577234
1685,000000	91,575115
1684,000000	91,570177
1683,000000	91,568938
1682,000000	91,570407
1681,000000	91,573995
1680,000000	91,576354
1679,000000	91,575551
1678,000000	91,573465
1677,000000	91,573117
1676,000000	91,569359
1675,000000	91,562068
1674,000000	91,561715
1673,000000	91,570368
1672,000000	91,575300
1671,000000	91,572946
1670,000000	91,578102
1669,000000	91,588157
1668,000000	91,585085
1667,000000	91,583859
1666,000000	91,593290
1665,000000	91,603334
1664,000000	91,602546
1663,000000	91,593164
1662,000000	91,583775
1661,000000	91,580078
1660,000000	91,577185
1659,000000	91,573365
1658,000000	91,568122
1657,000000	91,565767
1656,000000	91,572447
1655,000000	91,576523
1654,000000	91,582520
1653,000000	91,599181
1652,000000	91,611939
1651,000000	91,608066
1650,000000	91,591766
1649,000000	91,577052
1648,000000	91,571667
1647,000000	91,572492
1646,000000	91,577987
1645,000000	91,584391
1644,000000	91,589305
1643,000000	91,592177
1642,000000	91,595276
1641,000000	91,589268
1640,000000	91,577628
1639,000000	91,564015
1638,000000	91,553351
1637,000000	91,560689
1636,000000	91,567813
1635,000000	91,574369
1634,000000	91,582397
1633,000000	91,582877
1632,000000	91,580418
1631,000000	91,578390
1630,000000	91,581261
1629,000000	91,582302
1628,000000	91,577878
1627,000000	91,573890
1626,000000	91,575292
1625,000000	91,580890
1624,000000	91,587914
1623,000000	91,585490
1622,000000	91,583613
1621,000000	91,582649
1620,000000	91,578366
1619,000000	91,577864
1618,000000	91,573672
1617,000000	91,559949
1616,000000	91,554503
1615,000000	91,553174
1614,000000	91,555372
1613,000000	91,558936
1612,000000	91,550676
1611,000000	91,543515
1610,000000	91,547040
1609,000000	91,554856
1608,000000	91,558672
1607,000000	91,554958
1606,000000	91,549939
1605,000000	91,552199
1604,000000	91,558011
1603,000000	91,561873
1602,000000	91,564264
1601,000000	91,567028
1600,000000	91,569842
1599,000000	91,563095
1598,000000	91,555597
1597,000000	91,553669
1596,000000	91,550323
1595,000000	91,553439
1594,000000	91,555912
1593,000000	91,560031
1592,000000	91,559242
1591,000000	91,559082
1590,000000	91,550040
1589,000000	91,542928
1588,000000	91,532915
1587,000000	91,533407
1586,000000	91,534379
1585,000000	91,532806
1584,000000	91,542014
1583,000000	91,539949
1582,000000	91,545025
1581,000000	91,550562
1580,000000	91,560427
1579,000000	91,554787
1578,000000	91,548099
1577,000000	91,559456
1576,000000	91,565287
1575,000000	91,565436
1574,000000	91,571883
1573,000000	91,572162
1572,000000	91,568964
1571,000000	91,562471
1570,000000	91,564569
1569,000000	91,564866
1568,000000	91,562692
1567,000000	91,563103
1566,000000	91,562455
1565,000000	91,568928
1564,000000	91,548734
1563,000000	91,537409
1562,000000	91,529893
1561,000000	91,535350
1560,000000	91,545608
1559,000000	91,558206
1558,000000	91,560096
1557,000000	91,553497
1556,000000	91,549385
1555,000000	91,547966
1554,000000	91,534185
1553,000000	91,530819
1552,000000	91,533475
1551,000000	91,535462
1550,000000	91,536458
1549,000000	91,520526
1548,000000	91,510516
1547,000000	91,511151
1546,000000	91,521996
1545,000000	91,526632
1544,000000	91,527913
1543,000000	91,527557
1542,000000	91,520543
1541,000000	91,522128
1540,000000	91,538658
1539,000000	91,546256
1538,000000	91,538650
1537,000000	91,528354
1536,000000	91,519762
1535,000000	91,514964
1534,000000	91,515058
1533,000000	91,511662
1532,000000	91,514657
1531,000000	91,522121
1530,000000	91,532332
1529,000000	91,535746
1528,000000	91,534467
1527,000000	91,535316
1526,000000	91,538124
1525,000000	91,535686
1524,000000	91,524757
1523,000000	91,515847
1522,000000	91,503937
1521,000000	91,500848
1520,000000	91,504875
1519,000000	91,506161
1518,000000	91,507727
1517,000000	91,516717
1516,000000	91,529471
1515,000000	91,529676
1514,000000	91,529565
1513,000000	91,530517
1512,000000	91,536762
1511,000000	91,526383
1510,000000	91,520050
1509,000000	91,501629
1508,000000	91,509563
1507,000000	91,511881
1506,000000	91,514799
1505,000000	91,509413
1504,000000	91,524316
1503,000000	91,526484
1502,000000	91,536648
1501,000000	91,524749
1500,000000	91,526380
1499,000000	91,529716
1498,000000	91,534692
1497,000000	91,528237
1496,000000	91,525537
1495,000000	91,521226
1494,000000	91,521168
1493,000000	91,519375
1492,000000	91,512320
1491,000000	91,505437
1490,000000	91,503336
1489,000000	91,501492
1488,000000	91,505417
1487,000000	91,512145
1486,000000	91,514766
1485,000000	91,508647
1484,000000	91,490521
1483,000000	91,491228
1482,000000	91,490279
1481,000000	91,496362
1480,000000	91,506839
1479,000000	91,516041
1478,000000	91,505529
1477,000000	91,505941
1476,000000	91,498022
1475,000000	91,492284
1474,000000	91,498203
1473,000000	91,501061
1472,000000	91,497637
1471,000000	91,496980
1470,000000	91,515591
1469,000000	91,510414
1468,000000	91,504398
1467,000000	91,498016
1466,000000	91,494896
1465,000000	91,508578
1464,000000	91,563406
1463,000000	91,636409
1462,000000	91,591558
1461,000000	91,516584
1460,000000	91,510333
1459,000000	91,503463
1458,000000	91,486524
1457,000000	91,479060
1456,000000	91,480026
1455,000000	91,430423
1454,000000	91,395355
1453,000000	91,380038
1452,000000	91,373593
1451,000000	91,358304
1450,000000	91,346742
1449,000000	91,355407
1448,000000	91,360929
1447,000000	91,351451
1446,000000	91,356863
1445,000000	91,367147
1444,000000	91,393278
1443,000000	91,438502
1442,000000	91,398934
1441,000000	91,351468
1440,000000	91,352540
1439,000000	91,348084
1438,000000	91,348620
1437,000000	91,346009
1436,000000	91,346247
1435,000000	91,352101
1434,000000	91,356069
1433,000000	91,355604
1432,000000	91,356109
1431,000000	91,351918
1430,000000	91,349016
1429,000000	91,350462
1428,000000	91,354511
1427,000000	91,339193
1426,000000	91,322167
1425,000000	91,366209
1424,000000	91,447815
1423,000000	91,471107
1422,000000	91,470944
1421,000000	91,474400
1420,000000	91,498174
1419,000000	91,520613
1418,000000	91,519862
1417,000000	91,524156
1416,000000	91,518391
1415,000000	91,508760
1414,000000	91,511001
1413,000000	91,511352
1412,000000	91,507992
1411,000000	91,505821
1410,000000	91,500675
1409,000000	91,495987
1408,000000	91,504303
1407,000000	91,504054
1406,000000	91,501387
1405,000000	91,497350
1404,000000	91,480117
1403,000000	91,468090
1402,000000	91,467097
1401,000000	91,466025
1400,000000	91,467845
1399,000000	91,475909
1398,000000	91,490683
1397,000000	91,501598
1396,000000	91,499738
1395,000000	91,494894
1394,000000	91,499816
1393,000000	91,490310
1392,000000	91,479876
1391,000000	91,476200
1390,000000	91,471873
1389,000000	91,471143
1388,000000	91,475613
1387,000000	91,475643
1386,000000	91,470667
1385,000000	91,464414
1384,000000	91,462131
1383,000000	91,459706
1382,000000	91,456681
1381,000000	91,457540
1380,000000	91,458406
1379,000000	91,457666
1378,000000	91,458301
1377,000000	91,462305
1376,000000	91,465802
1375,000000	91,463322
1374,000000	91,457262
1373,000000	91,458037
1372,000000	91,468413
1371,000000	91,474531
1370,000000	91,463572
1369,000000	91,451041
1368,000000	91,452356
1367,000000	91,456163
1366,000000	91,453276
1365,000000	91,441998
1364,000000	91,427595
1363,000000	91,413420
1362,000000	91,407430
1361,000000	91,405963
1360,000000	91,406094
1359,000000	91,400444
1358,000000	91,387565
1357,000000	91,379621
1356,000000	91,376815
1355,000000	91,373257
1354,000000	91,373422
1353,000000	91,374477
1352,000000	91,373948
1351,000000	91,373861
1350,000000	91,371295
1349,000000	91,378121
1348,000000	91,384970
1347,000000	91,380024
1346,000000	91,379189
1345,000000	91,385243
1344,000000	91,392511
1343,000000	91,392139
1342,000000	91,394702
1341,000000	91,398442
1340,000000	91,398380
1339,000000	91,395152
1338,000000	91,390710
1337,000000	91,403013
1336,000000	91,511400
1335,000000	91,511918
1334,000000	91,440519
1333,000000	91,436939
1332,000000	91,438338
1331,000000	91,436810
1330,000000	91,428284
1329,000000	91,423063
1328,000000	91,423376
1327,000000	91,424162
1326,000000	91,422589
1325,000000	91,424139
1324,000000	91,430218
1323,000000	91,436655
1322,000000	91,436223
1321,000000	91,433909
1320,000000	91,431105
1319,000000	91,425115
1318,000000	91,422040
1317,000000	91,420949
1316,000000	91,516920
1315,000000	91,478264
1314,000000	91,414444
1313,000000	91,415713
1312,000000	91,418683
1311,000000	91,415304
1310,000000	91,497347
1309,000000	91,444594
1308,000000	91,387595
1307,000000	91,398839
1306,000000	91,403288
1305,000000	91,398078
1304,000000	91,396916
1303,000000	91,402783
1302,000000	91,402324
1301,000000	91,397231
1300,000000	91,386392
1299,000000	91,379210
1298,000000	91,385424
1297,000000	91,392064
1296,000000	91,395059
1295,000000	91,390552
1294,000000	91,390782
1293,000000	91,395265
1292,000000	91,502525
1291,000000	91,452710
1290,000000	91,409970
1289,000000	91,416497
1288,000000	91,415169
1287,000000	91,406255
1286,000000	91,406339
1285,000000	91,402729
1284,000000	91,504813
1283,000000	91,553158
1282,000000	91,441703
1281,000000	91,397001
1280,000000	91,402035
1279,000000	91,400823
1278,000000	91,407003
1277,000000	91,413342
1276,000000	91,415590
1275,000000	91,414844
1274,000000	91,405965
1273,000000	91,395918
1272,000000	91,512077
1271,000000	91,434648
1270,000000	91,405094
1269,000000	91,404941
1268,000000	91,399414
1267,000000	91,392195
1266,000000	91,386108
1265,000000	91,499767
1264,000000	91,409529
1263,000000	91,375269
1262,000000	91,372037
1261,000000	91,377148
1260,000000	91,373380
1259,000000	91,370837
1258,000000	91,370751
1257,000000	91,368726
1256,000000	91,373303
1255,000000	91,376485
1254,000000	91,374306
1253,000000	91,371606
1252,000000	91,368438
1251,000000	91,376140
1250,000000	91,379437
1249,000000	91,378126
1248,000000	91,376594
1247,000000	91,374813
1246,000000	91,373122
1245,000000	91,378848
1244,000000	91,374125
1243,000000	91,363067
1242,000000	91,358824
1241,000000	91,366113
1240,000000	91,367160
1239,000000	91,486745
1238,000000	91,497211
1237,000000	91,373506
1236,000000	91,352307
1235,000000	91,349716
1234,000000	91,341377
1233,000000	91,468422
1232,000000	91,362305
1231,000000	91,351072
1230,000000	91,344660
1229,000000	91,468173
1228,000000	91,357740
1227,000000	91,343567
1226,000000	91,343222
1225,000000	91,344785
1224,000000	91,342302
1223,000000	91,345056
1222,000000	91,350344
1221,000000	91,352307
1220,000000	91,453629
1219,000000	91,354273
1218,000000	91,341902
1217,000000	91,344031
1216,000000	91,350236
1215,000000	91,354088
1214,000000	91,362882
1213,000000	91,366906
1212,000000	91,363392
1211,000000	91,359275
1210,000000	91,347455
1209,000000	91,327804
1208,000000	91,327941
1207,000000	91,330848
1206,000000	91,328082
1205,000000	91,324152
1204,000000	91,320220
1203,000000	91,326077
1202,000000	91,320866
1201,000000	91,322957
1200,000000	91,333059
1199,000000	91,337687
1198,000000	91,341992
1197,000000	91,345805
1196,000000	91,335541
1195,000000	91,334841
1194,000000	91,326139
1193,000000	91,330995
1192,000000	91,333316
1191,000000	91,332759
1190,000000	91,321260
1189,000000	91,322536
1188,000000	91,319827
1187,000000	91,319641
1186,000000	91,311362
1185,000000	91,302375
1184,000000	91,306040
1183,000000	91,308094
1182,000000	91,303097
1181,000000	91,304936
1180,000000	91,301128
1179,000000	91,295061
1178,000000	91,307005
1177,000000	91,318233
1176,000000	91,316802
1175,000000	91,311452
1174,000000	91,319109
1173,000000	91,334518
1172,000000	91,338625
1171,000000	91,324201
1170,000000	91,329511
1169,000000	91,315774
1168,000000	91,315623
1167,000000	91,313141
1166,000000	91,310599
1165,000000	91,313157
1164,000000	91,311308
1163,000000	91,313790
1162,000000	91,308680
1161,000000	91,316361
1160,000000	91,318101
1159,000000	91,325105
1158,000000	91,324080
1157,000000	91,322517
1156,000000	91,313698
1155,000000	91,303458
1154,000000	91,298069
1153,000000	91,310340
1152,000000	91,306735
1151,000000	91,306911
1150,000000	91,306615
1149,000000	91,305177
1148,000000	91,299965
1147,000000	91,300001
1146,000000	91,300483
1145,000000	91,299951
1144,000000	91,299187
1143,000000	91,303700
1142,000000	91,304403
1141,000000	91,302001
1140,000000	91,302649
1139,000000	91,303644
1138,000000	91,305318
1137,000000	91,313141
1136,000000	91,318638
1135,000000	91,319965
1134,000000	91,311608
1133,000000	91,306706
1132,000000	91,295381
1131,000000	91,295201
1130,000000	91,292372
1129,000000	91,284967
1128,000000	91,281464
1127,000000	91,280805
1126,000000	91,278140
1125,000000	91,272159
1124,000000	91,268430
1123,000000	91,265990
1122,000000	91,261178
1121,000000	91,266085
1120,000000	91,264868
1119,000000	91,261440
1118,000000	91,258141
1117,000000	91,260259
1116,000000	91,263331
1115,000000	91,272835
1114,000000	91,270673
1113,000000	91,269358
1112,000000	91,265368
1111,000000	91,260326
1110,000000	91,262251
1109,000000	91,267463
1108,000000	91,279911
1107,000000	91,290969
1106,000000	91,296795
1105,000000	91,298747
1104,000000	91,294225
1103,000000	91,292244
1102,000000	91,294849
1101,000000	91,294908
1100,000000	91,289412
1099,000000	91,288329
1098,000000	91,283094
1097,000000	91,277377
1096,000000	91,277476
1095,000000	91,274714
1094,000000	91,274221
1093,000000	91,270304
1092,000000	91,268953
1091,000000	91,269149
1090,000000	91,264861
1089,000000	91,263508
1088,000000	91,260998
1087,000000	91,254746
1086,000000	91,250315
1085,000000	91,253713
1084,000000	91,259806
1083,000000	91,267403
1082,000000	91,276421
1081,000000	91,277648
1080,000000	91,273469
1079,000000	91,264468
1078,000000	91,258314
1077,000000	91,265758
1076,000000	91,275850
1075,000000	91,283886
1074,000000	91,283586
1073,000000	91,276976
1072,000000	91,270938
1071,000000	91,269766
1070,000000	91,271912
1069,000000	91,268118
1068,000000	91,264685
1067,000000	91,270118
1066,000000	91,279251
1065,000000	91,286828
1064,000000	91,287671
1063,000000	91,288906
1062,000000	91,288664
1061,000000	91,278497
1060,000000	91,263203
1059,000000	91,262310
1058,000000	91,272753
1057,000000	91,273413
1056,000000	91,263729
1055,000000	91,252060
1054,000000	91,257944
1053,000000	91,273420
1052,000000	91,274570
1051,000000	91,274093
1050,000000	91,288849
1049,000000	91,300783
1048,000000	91,301421
1047,000000	91,300803
1046,000000	91,299938
1045,000000	91,290309
1044,000000	91,283068
1043,000000	91,284847
1042,000000	91,288145
1041,000000	91,290157
1040,000000	91,284878
1039,000000	91,275327
1038,000000	91,268787
1037,000000	91,263426
1036,000000	91,261050
1035,000000	91,261219
1034,000000	91,264897
1033,000000	91,264492
1032,000000	91,261467
1031,000000	91,262571
1030,000000	91,265601
1029,000000	91,268266
1028,000000	91,264193
1027,000000	91,257867
1026,000000	91,256482
1025,000000	91,253673
1024,000000	91,249481
1023,000000	91,246896
1022,000000	91,246903
1021,000000	91,243679
1020,000000	91,236816
1019,000000	91,244079
1018,000000	91,250977
1017,000000	91,253419
1016,000000	91,249297
1015,000000	91,242259
1014,000000	91,238262
1013,000000	91,240428
1012,000000	91,244434
1011,000000	91,242428
1010,000000	91,244976
1009,000000	91,249806
1008,000000	91,244541
1007,000000	91,240923
1006,000000	91,245614
1005,000000	91,244719
1004,000000	91,237801
1003,000000	91,234237
1002,000000	91,236243
1001,000000	91,236972
1000,000000	91,235483
999,000000	91,232192
998,000000	91,230005
997,000000	91,228822
996,000000	91,223333
995,000000	91,220753
994,000000	91,218915
993,000000	91,216098
992,000000	91,212318
991,000000	91,214913
990,000000	91,219833
989,000000	91,219002
988,000000	91,212679
987,000000	91,210690
986,000000	91,211801
985,000000	91,213379
984,000000	91,215678
983,000000	91,214348
982,000000	91,218185
981,000000	91,217079
980,000000	91,208989
979,000000	91,197878
978,000000	91,189262
977,000000	91,191980
976,000000	91,191128
975,000000	91,184121
974,000000	91,179168
973,000000	91,171526
972,000000	91,161909
971,000000	91,159160
970,000000	91,163772
969,000000	91,178012
968,000000	91,187492
967,000000	91,183016
966,000000	91,177708
965,000000	91,175913
964,000000	91,172980
963,000000	91,169417
962,000000	91,164201
961,000000	91,158378
960,000000	91,151505
959,000000	91,150071
958,000000	91,152069
957,000000	91,157028
956,000000	91,157224
955,000000	91,153385
954,000000	91,157284
953,000000	91,153629
952,000000	91,147468
951,000000	91,139784
950,000000	91,136299
949,000000	91,129411
948,000000	91,128770
947,000000	91,133781
946,000000	91,127385
945,000000	91,115244
944,000000	91,112876
943,000000	91,104907
942,000000	91,101379
941,000000	91,101293
940,000000	91,100211
939,000000	91,092300
938,000000	91,084479
937,000000	91,075740
936,000000	91,063263
935,000000	91,056006
934,000000	91,045430
933,000000	91,036941
932,000000	91,043389
931,000000	91,051026
930,000000	91,048052
929,000000	91,046560
928,000000	91,044080
927,000000	91,044792
926,000000	91,037640
925,000000	91,035969
924,000000	91,018077
923,000000	91,004921
922,000000	91,005645
921,000000	91,008530
920,000000	91,013118
919,000000	90,990417
918,000000	90,998264
917,000000	91,006311
916,000000	90,995598
915,000000	90,978273
914,000000	90,970673
913,000000	90,966859
912,000000	90,963965
911,000000	90,957900
910,000000	90,951655
909,000000	90,946888
908,000000	90,946040
907,000000	90,934618
906,000000	90,933526
905,000000	90,929639
904,000000	90,931564
903,000000	90,935552
902,000000	90,931821
901,000000	90,928601
900,000000	90,907508
899,000000	90,883457
898,000000	90,882112
897,000000	90,882015
896,000000	90,890353
895,000000	90,879287
894,000000	90,862402
893,000000	90,841959
892,000000	90,838478
891,000000	90,837937
890,000000	90,850933
889,000000	90,845111
888,000000	90,829671
887,000000	90,808125
886,000000	90,797090
885,000000	90,780726
884,000000	90,766896
883,000000	90,767548
882,000000	90,767162
881,000000	90,772484
880,000000	90,777103
879,000000	90,769308
878,000000	90,769736
877,000000	90,769983
876,000000	90,762499
875,000000	90,761684
874,000000	90,745580
873,000000	90,735623
872,000000	90,726126
871,000000	90,713823
870,000000	90,704329
869,000000	90,701223
868,000000	90,710111
867,000000	90,709000
866,000000	90,706214
865,000000	90,693207
864,000000	90,696179
863,000000	90,689688
862,000000	90,678007
861,000000	90,676969
860,000000	91,126473
859,000000	91,106141
858,000000	91,103710
857,000000	91,198914
856,000000	91,226572
855,000000	91,190456
854,000000	91,216022
853,000000	91,222844
852,000000	91,265841
851,000000	91,219660
850,000000	91,200926
849,000000	91,219281
848,000000	91,181757
847,000000	91,189516
846,000000	91,258490
845,000000	91,190367
844,000000	91,155249
843,000000	91,218376
842,000000	91,192457
841,000000	91,207617
840,000000	91,193840
839,000000	91,191809
838,000000	91,262639
837,000000	91,214510
836,000000	91,192410
835,000000	91,205098
834,000000	91,236909
833,000000	91,209679
832,000000	91,244782
831,000000	91,208774
830,000000	91,228803
829,000000	91,206777
828,000000	91,202615
827,000000	91,207087
826,000000	91,199642
825,000000	91,199931
824,000000	91,241615
823,000000	91,204552
822,000000	91,183029
821,000000	91,212781
820,000000	91,182972
819,000000	91,198711
818,000000	91,184940
817,000000	91,201518
816,000000	91,215936
815,000000	91,201664
814,000000	91,204565
813,000000	91,175860
812,000000	91,203421
811,000000	91,243813
810,000000	91,224484
809,000000	91,195658
808,000000	91,171658
807,000000	91,194467
806,000000	91,192890
805,000000	91,191838
804,000000	91,198713
803,000000	91,182456
802,000000	91,198716
801,000000	91,213467
800,000000	91,212960
799,000000	91,191983
798,000000	91,203494
797,000000	91,197414
796,000000	91,189948
795,000000	91,179295
794,000000	91,188897
793,000000	91,165295
792,000000	91,168830
791,000000	91,181277
790,000000	91,192799
789,000000	91,189042
788,000000	91,162938
787,000000	91,170840
786,000000	91,158076
785,000000	91,165539
784,000000	91,156244
783,000000	91,148481
782,000000	91,171931
781,000000	91,175900
780,000000	91,149022
779,000000	91,175493
778,000000	91,170679
777,000000	91,168150
776,000000	91,148610
775,000000	91,169366
774,000000	91,166348
773,000000	91,161544
772,000000	91,151582
771,000000	91,145468
770,000000	91,157803
769,000000	91,178239
768,000000	91,199287
767,000000	91,147378
766,000000	91,148791
765,000000	91,157797
764,000000	91,158884
763,000000	91,175615
762,000000	91,172870
761,000000	91,154786
760,000000	91,139233
759,000000	91,157845
758,000000	91,180189
757,000000	91,180248
756,000000	91,169696
755,000000	91,163277
754,000000	91,176933
753,000000	91,161778
752,000000	91,157244
751,000000	91,172019
750,000000	91,166752
749,000000	91,142363
748,000000	91,136692
747,000000	91,129014
746,000000	91,150598
745,000000	91,165427
744,000000	91,164034
743,000000	91,141901
742,000000	91,146357
741,000000	91,149935
740,000000	91,134077
739,000000	91,117646
738,000000	91,124830
737,000000	91,139627
736,000000	91,131665
735,000000	91,118749
734,000000	91,116538
733,000000	91,117954
732,000000	91,114311
731,000000	91,114029
730,000000	91,113490
729,000000	91,122940
728,000000	91,121154
727,000000	91,111225
726,000000	91,115230
725,000000	91,127231
724,000000	91,153225
723,000000	91,154888
722,000000	91,134383
721,000000	91,122240
720,000000	91,118921
719,000000	91,121131
718,000000	91,129201
717,000000	91,134763
716,000000	91,124642
715,000000	91,116706
714,000000	91,110911
713,000000	91,121663
712,000000	91,139784
711,000000	91,123125
710,000000	91,119841
709,000000	91,132300
708,000000	91,122048
707,000000	91,120618
706,000000	91,134504
705,000000	91,129193
704,000000	91,128244
703,000000	91,125671
702,000000	91,108990
701,000000	91,102851
700,000000	91,106432
699,000000	91,100557
698,000000	91,084364
697,000000	91,092482
696,000000	91,108368
695,000000	91,114589
694,000000	91,107800
693,000000	91,090396
692,000000	91,103109
691,000000	91,116751
690,000000	91,128076
689,000000	91,131055
688,000000	91,131333
687,000000	91,132733
686,000000	91,132105
685,000000	91,115957
684,000000	91,101116
683,000000	91,107904
682,000000	91,125193
681,000000	91,127086
680,000000	91,111346
679,000000	91,125486
678,000000	91,129031
677,000000	91,106499
676,000000	91,115317
675,000000	91,117356
674,000000	91,092939
673,000000	91,074892
672,000000	91,083581
671,000000	91,097304
670,000000	91,088579
669,000000	91,087618
668,000000	91,086481
667,000000	91,090733
666,000000	91,109965
665,000000	91,093285
664,000000	91,096895
663,000000	91,103813
662,000000	91,094973
661,000000	91,104349
660,000000	91,109088
659,000000	91,099378
658,000000	91,099393
657,000000	91,097880
656,000000	91,093289
655,000000	91,086247
654,000000	91,082571
653,000000	91,086521
652,000000	91,083441
651,000000	91,086126
650,000000	91,082346
649,000000	91,100134
648,000000	91,087479
647,000000	91,078840
646,000000	91,083460
645,000000	91,092405
644,000000	91,082003
643,000000	91,087540
642,000000	91,091220
641,000000	91,092100
640,000000	91,085839
639,000000	91,092281
638,000000	91,076369
637,000000	91,092269
636,000000	91,091531
635,000000	91,092708
634,000000	91,097244
633,000000	91,093022
632,000000	91,098058
631,000000	91,085712
630,000000	91,090586
629,000000	91,085200
628,000000	91,085359
627,000000	91,079396
626,000000	91,085807
625,000000	91,089968
624,000000	91,088536
623,000000	91,101748
622,000000	91,094961
621,000000	91,102673
620,000000	91,068436
619,000000	91,055588
618,000000	91,048884
617,000000	91,046658
616,000000	91,048320
615,000000	91,052370
614,000000	91,066494
613,000000	91,054518
612,000000	91,040539
611,000000	91,039458
610,000000	91,037863
609,000000	91,029076
608,000000	91,034946
607,000000	91,042282
606,000000	91,057428
605,000000	91,048053
604,000000	91,024102
603,000000	91,027460
602,000000	91,031613
601,000000	91,042845
600,000000	91,017348
599,000000	91,006545
598,000000	91,008981
597,000000	91,014965
596,000000	91,016036
595,000000	91,005739
594,000000	91,014438
593,000000	91,009940
592,000000	91,006220
591,000000	90,999797
590,000000	91,019842
589,000000	91,012259
588,000000	91,000854
587,000000	90,988149
586,000000	91,001194
585,000000	90,992811
584,000000	90,982638
583,000000	90,978614
582,000000	90,984920
581,000000	90,984879
580,000000	90,977459
579,000000	90,958875
578,000000	90,963661
577,000000	90,958713
576,000000	90,962359
575,000000	90,956046
574,000000	90,958360
573,000000	90,981318
572,000000	90,966652
571,000000	90,973335
570,000000	90,977321
569,000000	90,986431
568,000000	90,970635
567,000000	90,970813
566,000000	90,958383
565,000000	90,973976
564,000000	90,958938
563,000000	90,945964
562,000000	90,954217
561,000000	90,957394
560,000000	90,946550
559,000000	90,954217
558,000000	90,954655
557,000000	90,945628
556,000000	90,962118
555,000000	90,941418
554,000000	90,954370
553,000000	90,943016
552,000000	90,941567
551,000000	90,936849
550,000000	90,935401
549,000000	90,939006
548,000000	90,938242
547,000000	90,937354
546,000000	90,964022
545,000000	90,925164
544,000000	90,929774
543,000000	90,922492
542,000000	90,915131
541,000000	90,905722
540,000000	90,906457
539,000000	90,914099
538,000000	90,902381
537,000000	90,898552
536,000000	90,895731
535,000000	90,896563
534,000000	90,896673
533,000000	90,898225
532,000000	90,887505
531,000000	90,897794
530,000000	90,887491
529,000000	90,887853
528,000000	90,877596
527,000000	90,878287
526,000000	90,873165
525,000000	90,884450
524,000000	90,880776
523,000000	90,891239
522,000000	90,886008
521,000000	90,889702
520,000000	90,873655
519,000000	90,868514
518,000000	90,867005
517,000000	90,888002
516,000000	90,898770
515,000000	90,882593
514,000000	90,894054
513,000000	90,892368
512,000000	90,885106
511,000000	90,875025
510,000000	90,879250
509,000000	90,887777
508,000000	90,887882
507,000000	90,887227
506,000000	90,874054
505,000000	90,877346
504,000000	90,873521
503,000000	90,864598
502,000000	90,859223
501,000000	90,872358
500,000000	90,869823
499,000000	90,851726
498,000000	90,854273
497,000000	90,861423
496,000000	90,857538
495,000000	90,848065
494,000000	90,835314
493,000000	90,825972
492,000000	90,837708
491,000000	90,832771
490,000000	90,833028
489,000000	90,825437
488,000000	90,837024
487,000000	90,814543
486,000000	90,798170
485,000000	90,786322
484,000000	90,779140
483,000000	90,780662
482,000000	90,784842
481,000000	90,785823
480,000000	90,784660
479,000000	90,784789
478,000000	90,792162
477,000000	90,789493
476,000000	90,790914
475,000000	90,807978
474,000000	90,836945
473,000000	90,851821
472,000000	90,871011
471,000000	90,908658
470,000000	90,934288
469,000000	90,938306
468,000000	90,942033
467,000000	90,946914
466,000000	90,953840
465,000000	90,966649
464,000000	90,958649
463,000000	90,942030
462,000000	90,942344
461,000000	90,947904
460,000000	90,962444
459,000000	90,964790
458,000000	90,950822
457,000000	90,936903
456,000000	90,914419
455,000000	90,910652
454,000000	90,916436
453,000000	90,916366
452,000000	90,913500
451,000000	90,918158
450,000000	90,929742
449,000000	90,922813
448,000000	90,915442
447,000000	90,905906
446,000000	90,895229
445,000000	90,892423
444,000000	90,891303
443,000000	90,877080
442,000000	90,871889
441,000000	90,870586
440,000000	90,850217
439,000000	90,839960
438,000000	90,850103
437,000000	90,857482
436,000000	90,852057
435,000000	90,856166
434,000000	90,854008
433,000000	90,833185
432,000000	90,814236
431,000000	90,816599
430,000000	90,818819
429,000000	90,807958
428,000000	90,767804
427,000000	90,736696
426,000000	90,723753
425,000000	90,724759
424,000000	90,733591
423,000000	90,733988
422,000000	90,748247
421,000000	90,746778
420,000000	90,741349
419,000000	90,728592
418,000000	90,712729
417,000000	90,697759
416,000000	90,697257
415,000000	90,703507
414,000000	90,708217
413,000000	90,708270
412,000000	90,698263
411,000000	90,688327
410,000000	90,693787
409,000000	90,690754
408,000000	90,681749
407,000000	90,679228
406,000000	90,691378
405,000000	90,698168
404,000000	90,683648
403,000000	90,675787
402,000000	90,683997
401,000000	90,692200
400,000000	90,694708
399,000000	90,692092
398,000000	90,691106
397,000000	90,692756
396,000000	90,704860
395,000000	90,714521
394,000000	90,725794
393,000000	90,715792
392,000000	90,727025
391,000000	90,715566
390,000000	90,695514
389,000000	90,687141
388,000000	90,676019
387,000000	90,701565
386,000000	90,722756
385,000000	90,696430
384,000000	90,680980
383,000000	90,684788
382,000000	90,694102
381,000000	90,700897
380,000000	90,676704
379,000000	90,402544
378,000000	90,289717
377,000000	90,278189
376,000000	90,247605
375,000000	90,206249
374,000000	90,159023
373,000000	90,163290
372,000000	90,180063
371,000000	90,223110
370,000000	90,153366
369,000000	90,155154
368,000000	90,158694
367,000000	90,175499
366,000000	90,175553
365,000000	90,104949
364,000000	90,091283
363,000000	90,105428
362,000000	90,147136
361,000000	90,094836
360,000000	90,120673
359,000000	90,075134
358,000000	89,999597
357,000000	90,071775
356,000000	90,056862
355,000000	90,061976
354,000000	89,984189
353,000000	89,993760
352,000000	90,070905
351,000000	90,045361
350,000000	90,085758
349,000000	90,035200
348,000000	90,081810
347,000000	90,095571
346,000000	90,072970
345,000000	90,109445
344,000000	90,036904
343,000000	90,091952
342,000000	90,080028
341,000000	90,049545
340,000000	90,086337
339,000000	90,065730
338,000000	90,047351
337,000000	90,080651
336,000000	90,058167
335,000000	90,006794
334,000000	89,944077
333,000000	90,005758
332,000000	89,931048
331,000000	90,006472
330,000000	89,980343
329,000000	89,936815
328,000000	89,900081
327,000000	89,976307
326,000000	90,079009
325,000000	89,998241
324,000000	89,885428
323,000000	89,895397
322,000000	89,880769
321,000000	89,871205
320,000000	89,880540
319,000000	90,150932
318,000000	90,160678
317,000000	90,171523
316,000000	90,180787
315,000000	90,164490
314,000000	90,194647
313,000000	90,172144
312,000000	90,148826
311,000000	90,176384
310,000000	90,151915
309,000000	90,160738
308,000000	90,157477
307,000000	90,169613
306,000000	90,143055
305,000000	90,142812
304,000000	90,136019
303,000000	90,133329
302,000000	90,095336
301,000000	90,088115
300,000000	90,048542
299,000000	90,073084
298,000000	90,063180
297,000000	90,030017
296,000000	89,990333
295,000000	89,962944
294,000000	89,963995
293,000000	89,941942
292,000000	89,933020
291,000000	89,943690
290,000000	89,902147
289,000000	89,881344
288,000000	89,874322
287,000000	89,873587
286,000000	89,848031
285,000000	89,822331
284,000000	89,792043
283,000000	89,761909
282,000000	89,754860
281,000000	89,744474
280,000000	89,734051
279,000000	89,731699
278,000000	89,722083
277,000000	89,687432
276,000000	89,689860
275,000000	89,663477
274,000000	89,656712
273,000000	89,622936
272,000000	89,599730
271,000000	89,580806
270,000000	89,564640
269,000000	89,542018
268,000000	89,522577
267,000000	89,504124
266,000000	89,487761
265,000000	89,471740
264,000000	89,446692
263,000000	89,423519
262,000000	89,423153
261,000000	89,406864
260,000000	89,412098
259,000000	89,373927
258,000000	89,360495
257,000000	89,358199
256,000000	89,355149
255,000000	89,336739
254,000000	89,328791
253,000000	89,316422
252,000000	89,283990
251,000000	89,243013
250,000000	89,231570
249,000000	89,220048
248,000000	89,180841
247,000000	89,139983
246,000000	89,111409
245,000000	89,100292
244,000000	89,073248
243,000000	89,030504
242,000000	89,011013
241,000000	89,001092
240,000000	88,966846
239,000000	88,972870
238,000000	88,952980
237,000000	88,938165
236,000000	88,906704
235,000000	88,888092
234,000000	88,852946
233,000000	88,791899
232,000000	88,769599
231,000000	88,749195
230,000000	88,709260
229,000000	88,673818
228,000000	88,648754
227,000000	88,627353
226,000000	88,629739
225,000000	88,609063
224,000000	88,582762
223,000000	88,532913
222,000000	88,483528
221,000000	88,438306
220,000000	88,368047
219,000000	88,339188
218,000000	88,326016
217,000000	88,284918
216,000000	88,235271
215,000000	88,213780
214,000000	88,156647
213,000000	88,096622
212,000000	88,030693
211,000000	87,976069
210,000000	87,888535
209,000000	87,831778
208,000000	87,759577
207,000000	87,694989
206,000000	87,611348
205,000000	87,516457
204,000000	87,403097
203,000000	87,303380
202,000000	87,188231
201,000000	87,081248
200,000000	86,988452
