PE UV       SUBTECH     SPECTRUM    ASCII       PEDS        4.00        
   -1
c.Sample.asc
22/03/23
15:08:11.00
22/03/23
15:08:11.00
Administrator

200,000000
1
Lambda 1050
1050L1808311
PerkinElmer UV WinLab 6.4.0.973 / 2.02.11 Lambda 900 UV/VIS/NIR, May 23 2018 11:23:04

0
0
3350/servo 1800,8/servo 860,8/2
0
0
UV/VIS
1
1
1
CommonBeamDepol,RBeamAtt,SBeamAtt,uv/vis/nir detector, TDS WB InGaAs Detector
0
0
0
0
Program
Program
3350/servo 1800,8/servo 860,8/2
3350/0,2 1800,8/0,2 860,8/0,2
3350/0,2 1800,8/0,2 860,8/0,2
0
3350/1,00 1800,8/1,00
 
 
 
0
 
860,8
319,2
1800,8 860,8
Front
100
on
S:100 R:100
 
0
0
0
 
0
 
 
 
0
 
 
0
0
0
0
0
 
 
 
 
0
0


0
0
#HDR
-1
-1
#GR
nm
%T
1.0
0.0
2000,000000
-1,000000
1801
8
33,731851
0,214901
#DATA
2000,000000	33,731851
1999,000000	33,717536
1998,000000	33,669866
1997,000000	33,653099
1996,000000	33,592911
1995,000000	33,588745
1994,000000	33,526454
1993,000000	33,524214
1992,000000	33,458276
1991,000000	33,459225
1990,000000	33,405179
1989,000000	33,396218
1988,000000	33,341961
1987,000000	33,318965
1986,000000	33,270150
1985,000000	33,234380
1984,000000	33,196372
1983,000000	33,192089
1982,000000	33,123554
1981,000000	33,125579
1980,000000	33,052796
1979,000000	33,031718
1978,000000	32,979943
1977,000000	32,969198
1976,000000	32,923473
1975,000000	32,910217
1974,000000	32,849135
1973,000000	32,820279
1972,000000	32,789474
1971,000000	32,777921
1970,000000	32,708276
1969,000000	32,691158
1968,000000	32,627809
1967,000000	32,622050
1966,000000	32,577878
1965,000000	32,549113
1964,000000	32,502112
1963,000000	32,489369
1962,000000	32,439886
1961,000000	32,397515
1960,000000	32,369465
1959,000000	32,342362
1958,000000	32,287773
1957,000000	32,262846
1956,000000	32,214694
1955,000000	32,201374
1954,000000	32,132302
1953,000000	32,123507
1952,000000	32,062282
1951,000000	32,046381
1950,000000	31,990979
1949,000000	31,977392
1948,000000	31,908704
1947,000000	31,875448
1946,000000	31,835449
1945,000000	31,814061
1944,000000	31,740551
1943,000000	31,720659
1942,000000	31,682521
1941,000000	31,662619
1940,000000	31,595365
1939,000000	31,568481
1938,000000	31,517560
1937,000000	31,493809
1936,000000	31,455933
1935,000000	31,443230
1934,000000	31,383054
1933,000000	31,358901
1932,000000	31,293569
1931,000000	31,267505
1930,000000	31,205231
1929,000000	31,170930
1928,000000	31,134349
1927,000000	31,109543
1926,000000	31,084283
1925,000000	31,065705
1924,000000	31,001766
1923,000000	30,958414
1922,000000	30,900908
1921,000000	30,878559
1920,000000	30,821942
1919,000000	30,791168
1918,000000	30,766892
1917,000000	30,741006
1916,000000	30,680451
1915,000000	30,634846
1914,000000	30,578674
1913,000000	30,538111
1912,000000	30,493709
1911,000000	30,494657
1910,000000	30,460369
1909,000000	30,429495
1908,000000	30,376097
1907,000000	30,311793
1906,000000	30,255232
1905,000000	30,224303
1904,000000	30,193140
1903,000000	30,187692
1902,000000	30,145557
1901,000000	30,097475
1900,000000	30,031627
1899,000000	29,973161
1898,000000	29,947471
1897,000000	29,944641
1896,000000	29,909576
1895,000000	29,866458
1894,000000	29,806447
1893,000000	29,739873
1892,000000	29,682920
1891,000000	29,646666
1890,000000	29,606563
1889,000000	29,595324
1888,000000	29,561627
1887,000000	29,520678
1886,000000	29,465983
1885,000000	29,407723
1884,000000	29,368172
1883,000000	29,349385
1882,000000	29,307772
1881,000000	29,271778
1880,000000	29,218719
1879,000000	29,172011
1878,000000	29,117025
1877,000000	29,067880
1876,000000	29,023089
1875,000000	28,991170
1874,000000	28,952620
1873,000000	28,919203
1872,000000	28,875258
1871,000000	28,842549
1870,000000	28,809390
1869,000000	28,775504
1868,000000	28,744562
1867,000000	28,707850
1866,000000	28,667421
1865,000000	28,623190
1864,000000	28,571754
1863,000000	28,533665
1862,000000	28,485414
1861,000000	28,447544
1860,000000	28,415708
1859,000000	28,372897
1858,000000	28,336542
1857,000000	28,310332
1856,000000	28,281615
1855,000000	28,227746
1854,000000	28,154589
1853,000000	28,102716
1852,000000	28,081817
1851,000000	28,062486
1850,000000	28,022979
1849,000000	27,958257
1848,000000	27,890910
1847,000000	27,843970
1846,000000	27,840615
1845,000000	27,854949
1844,000000	27,823649
1843,000000	27,750869
1842,000000	27,665190
1841,000000	27,583774
1840,000000	27,566093
1839,000000	27,561778
1838,000000	27,546326
1837,000000	27,506045
1836,000000	27,443732
1835,000000	27,391800
1834,000000	27,376771
1833,000000	27,360860
1832,000000	27,316707
1831,000000	27,250917
1830,000000	27,201389
1829,000000	27,153131
1828,000000	27,124844
1827,000000	27,096513
1826,000000	27,061473
1825,000000	27,015183
1824,000000	26,988322
1823,000000	26,937158
1822,000000	26,881287
1821,000000	26,826531
1820,000000	26,782995
1819,000000	26,765886
1818,000000	26,767854
1817,000000	26,735737
1816,000000	26,671045
1815,000000	26,602713
1814,000000	26,580361
1813,000000	26,541621
1812,000000	26,516975
1811,000000	26,473314
1810,000000	26,431946
1809,000000	26,387991
1808,000000	26,356901
1807,000000	26,317910
1806,000000	26,272927
1805,000000	26,221416
1804,000000	26,209115
1803,000000	26,166864
1802,000000	26,141722
1801,000000	26,093267
1800,000000	25,228584
1799,000000	25,188070
1798,000000	25,152081
1797,000000	25,117364
1796,000000	25,079907
1795,000000	25,044056
1794,000000	25,013600
1793,000000	24,980144
1792,000000	24,940737
1791,000000	24,904010
1790,000000	24,870281
1789,000000	24,834767
1788,000000	24,793586
1787,000000	24,754167
1786,000000	24,718987
1785,000000	24,688509
1784,000000	24,652272
1783,000000	24,614356
1782,000000	24,574701
1781,000000	24,538348
1780,000000	24,501326
1779,000000	24,465082
1778,000000	24,428656
1777,000000	24,394067
1776,000000	24,357207
1775,000000	24,324473
1774,000000	24,284945
1773,000000	24,252109
1772,000000	24,218421
1771,000000	24,186891
1770,000000	24,153825
1769,000000	24,121873
1768,000000	24,091301
1767,000000	24,060540
1766,000000	24,025773
1765,000000	23,990481
1764,000000	23,955425
1763,000000	23,923291
1762,000000	23,891814
1761,000000	23,863268
1760,000000	23,829612
1759,000000	23,792340
1758,000000	23,755719
1757,000000	23,722961
1756,000000	23,688799
1755,000000	23,654288
1754,000000	23,620929
1753,000000	23,588620
1752,000000	23,557550
1751,000000	23,523999
1750,000000	23,494179
1749,000000	23,464180
1748,000000	23,431461
1747,000000	23,396090
1746,000000	23,359409
1745,000000	23,327863
1744,000000	23,294514
1743,000000	23,262111
1742,000000	23,232251
1741,000000	23,201787
1740,000000	23,166753
1739,000000	23,133418
1738,000000	23,101881
1737,000000	23,070701
1736,000000	23,038998
1735,000000	23,008483
1734,000000	22,977206
1733,000000	22,943942
1732,000000	22,913186
1731,000000	22,881263
1730,000000	22,849015
1729,000000	22,817891
1728,000000	22,788921
1727,000000	22,759874
1726,000000	22,728394
1725,000000	22,697294
1724,000000	22,668145
1723,000000	22,638760
1722,000000	22,605145
1721,000000	22,567242
1720,000000	22,533460
1719,000000	22,502691
1718,000000	22,471048
1717,000000	22,438663
1716,000000	22,411085
1715,000000	22,381154
1714,000000	22,350421
1713,000000	22,319182
1712,000000	22,289126
1711,000000	22,258464
1710,000000	22,226376
1709,000000	22,193286
1708,000000	22,161899
1707,000000	22,133972
1706,000000	22,101355
1705,000000	22,065363
1704,000000	22,031561
1703,000000	22,000871
1702,000000	21,970698
1701,000000	21,941054
1700,000000	21,913709
1699,000000	21,886093
1698,000000	21,852214
1697,000000	21,818082
1696,000000	21,784173
1695,000000	21,752535
1694,000000	21,724093
1693,000000	21,696211
1692,000000	21,666861
1691,000000	21,635466
1690,000000	21,604129
1689,000000	21,574731
1688,000000	21,545324
1687,000000	21,515546
1686,000000	21,486624
1685,000000	21,459387
1684,000000	21,429647
1683,000000	21,399856
1682,000000	21,370434
1681,000000	21,341200
1680,000000	21,313050
1679,000000	21,285551
1678,000000	21,258065
1677,000000	21,230064
1676,000000	21,202031
1675,000000	21,173308
1674,000000	21,144472
1673,000000	21,117077
1672,000000	21,090720
1671,000000	21,062902
1670,000000	21,034163
1669,000000	21,006384
1668,000000	20,977942
1667,000000	20,950512
1666,000000	20,924755
1665,000000	20,897641
1664,000000	20,868375
1663,000000	20,838540
1662,000000	20,809081
1661,000000	20,779609
1660,000000	20,748598
1659,000000	20,716298
1658,000000	20,683721
1657,000000	20,653130
1656,000000	20,625243
1655,000000	20,597290
1654,000000	20,568208
1653,000000	20,540363
1652,000000	20,511634
1651,000000	20,479349
1650,000000	20,445626
1649,000000	20,411434
1648,000000	20,379755
1647,000000	20,349876
1646,000000	20,319669
1645,000000	20,288288
1644,000000	20,256217
1643,000000	20,224328
1642,000000	20,192419
1641,000000	20,160091
1640,000000	20,128055
1639,000000	20,095947
1638,000000	20,062811
1637,000000	20,031604
1636,000000	19,999771
1635,000000	19,967337
1634,000000	19,934143
1633,000000	19,901332
1632,000000	19,869355
1631,000000	19,836246
1630,000000	19,804844
1629,000000	19,772959
1628,000000	19,738525
1627,000000	19,705088
1626,000000	19,673104
1625,000000	19,640689
1624,000000	19,607962
1623,000000	19,573484
1622,000000	19,538606
1621,000000	19,503517
1620,000000	19,468292
1619,000000	19,435364
1618,000000	19,401674
1617,000000	19,367857
1616,000000	19,333722
1615,000000	19,297225
1614,000000	19,260867
1613,000000	19,226638
1612,000000	19,190918
1611,000000	19,155809
1610,000000	19,120993
1609,000000	19,085761
1608,000000	19,050815
1607,000000	19,015227
1606,000000	18,979541
1605,000000	18,944085
1604,000000	18,908036
1603,000000	18,871758
1602,000000	18,836782
1601,000000	18,803005
1600,000000	18,769895
1599,000000	18,733512
1598,000000	18,695168
1597,000000	18,658229
1596,000000	18,621668
1595,000000	18,586149
1594,000000	18,550123
1593,000000	18,513280
1592,000000	18,476148
1591,000000	18,439177
1590,000000	18,401996
1589,000000	18,364978
1588,000000	18,326104
1587,000000	18,288537
1586,000000	18,252033
1585,000000	18,214408
1584,000000	18,175873
1583,000000	18,136107
1582,000000	18,097470
1581,000000	18,061872
1580,000000	18,023949
1579,000000	17,984763
1578,000000	17,947294
1577,000000	17,911367
1576,000000	17,875857
1575,000000	17,839409
1574,000000	17,799982
1573,000000	17,760241
1572,000000	17,720613
1571,000000	17,683127
1570,000000	17,645799
1569,000000	17,607817
1568,000000	17,568914
1567,000000	17,531493
1566,000000	17,492510
1565,000000	17,452700
1564,000000	17,410126
1563,000000	17,370250
1562,000000	17,331021
1561,000000	17,292330
1560,000000	17,253761
1559,000000	17,213588
1558,000000	17,172686
1557,000000	17,130393
1556,000000	17,090931
1555,000000	17,054458
1554,000000	17,016306
1553,000000	16,976689
1552,000000	16,937755
1551,000000	16,898314
1550,000000	16,860502
1549,000000	16,819006
1548,000000	16,778625
1547,000000	16,738870
1546,000000	16,699126
1545,000000	16,658724
1544,000000	16,619963
1543,000000	16,580563
1542,000000	16,540586
1541,000000	16,501452
1540,000000	16,463759
1539,000000	16,424887
1538,000000	16,384978
1537,000000	16,345740
1536,000000	16,307690
1535,000000	16,267512
1534,000000	16,228083
1533,000000	16,189223
1532,000000	16,149517
1531,000000	16,110071
1530,000000	16,071117
1529,000000	16,029848
1528,000000	15,992773
1527,000000	15,954007
1526,000000	15,917219
1525,000000	15,878105
1524,000000	15,837926
1523,000000	15,798537
1522,000000	15,759723
1521,000000	15,721647
1520,000000	15,683149
1519,000000	15,643281
1518,000000	15,604421
1517,000000	15,566097
1516,000000	15,528311
1515,000000	15,489997
1514,000000	15,453355
1513,000000	15,416564
1512,000000	15,380111
1511,000000	15,341413
1510,000000	15,303742
1509,000000	15,264918
1508,000000	15,228887
1507,000000	15,192033
1506,000000	15,156245
1505,000000	15,116366
1504,000000	15,080298
1503,000000	15,042837
1502,000000	15,006769
1501,000000	14,970520
1500,000000	14,934380
1499,000000	14,898402
1498,000000	14,861234
1497,000000	14,823232
1496,000000	14,787737
1495,000000	14,752232
1494,000000	14,717244
1493,000000	14,680406
1492,000000	14,642302
1491,000000	14,605912
1490,000000	14,573570
1489,000000	14,539675
1488,000000	14,505380
1487,000000	14,471637
1486,000000	14,438864
1485,000000	14,405180
1484,000000	14,367060
1483,000000	14,333595
1482,000000	14,299776
1481,000000	14,267413
1480,000000	14,233620
1479,000000	14,199917
1478,000000	14,166075
1477,000000	14,133620
1476,000000	14,098927
1475,000000	14,065251
1474,000000	14,034217
1473,000000	14,002098
1472,000000	13,969316
1471,000000	13,938420
1470,000000	13,909571
1469,000000	13,876387
1468,000000	13,843368
1467,000000	13,811062
1466,000000	13,780653
1465,000000	13,749514
1464,000000	13,726469
1463,000000	13,707676
1462,000000	13,671328
1461,000000	13,629634
1460,000000	13,597332
1459,000000	13,566429
1458,000000	13,536017
1457,000000	13,507133
1456,000000	13,480042
1455,000000	13,450591
1454,000000	13,421036
1453,000000	13,389868
1452,000000	13,360988
1451,000000	13,332797
1450,000000	13,304851
1449,000000	13,277411
1448,000000	13,248446
1447,000000	13,218542
1446,000000	13,188936
1445,000000	13,162332
1444,000000	13,138877
1443,000000	13,115320
1442,000000	13,083388
1441,000000	13,056395
1440,000000	13,028546
1439,000000	13,001084
1438,000000	12,974651
1437,000000	12,948663
1436,000000	12,923108
1435,000000	12,897877
1434,000000	12,871944
1433,000000	12,846072
1432,000000	12,820051
1431,000000	12,793388
1430,000000	12,768174
1429,000000	12,742656
1428,000000	12,717877
1427,000000	12,692596
1426,000000	12,667227
1425,000000	12,642263
1424,000000	12,616682
1423,000000	12,589731
1422,000000	12,563386
1421,000000	12,535854
1420,000000	12,510079
1419,000000	12,488655
1418,000000	12,464475
1417,000000	12,439976
1416,000000	12,415132
1415,000000	12,389921
1414,000000	12,366270
1413,000000	12,342442
1412,000000	12,319102
1411,000000	12,295305
1410,000000	12,270616
1409,000000	12,246271
1408,000000	12,224194
1407,000000	12,201414
1406,000000	12,178334
1405,000000	12,154910
1404,000000	12,130636
1403,000000	12,106934
1402,000000	12,084045
1401,000000	12,062281
1400,000000	12,040480
1399,000000	12,018721
1398,000000	11,998019
1397,000000	11,976353
1396,000000	11,953869
1395,000000	11,930864
1394,000000	11,908316
1393,000000	11,884529
1392,000000	11,861530
1391,000000	11,838989
1390,000000	11,815405
1389,000000	11,791826
1388,000000	11,767871
1387,000000	11,744401
1386,000000	11,721846
1385,000000	11,699753
1384,000000	11,677407
1383,000000	11,655459
1382,000000	11,634220
1381,000000	11,612947
1380,000000	11,590655
1379,000000	11,567644
1378,000000	11,546342
1377,000000	11,525245
1376,000000	11,502720
1375,000000	11,479174
1374,000000	11,455904
1373,000000	11,432571
1372,000000	11,409318
1371,000000	11,386876
1370,000000	11,363657
1369,000000	11,339862
1368,000000	11,317671
1367,000000	11,296272
1366,000000	11,272936
1365,000000	11,247693
1364,000000	11,223533
1363,000000	11,199803
1362,000000	11,176479
1361,000000	11,153294
1360,000000	11,129409
1359,000000	11,105704
1358,000000	11,082434
1357,000000	11,060453
1356,000000	11,038989
1355,000000	11,016986
1354,000000	10,995034
1353,000000	10,972593
1352,000000	10,949631
1351,000000	10,926593
1350,000000	10,903429
1349,000000	10,881101
1348,000000	10,859817
1347,000000	10,837562
1346,000000	10,817914
1345,000000	10,804675
1344,000000	10,793043
1343,000000	10,776981
1342,000000	10,756132
1341,000000	10,732160
1340,000000	10,708174
1339,000000	10,694848
1338,000000	10,671811
1337,000000	10,633979
1336,000000	10,614542
1335,000000	10,599586
1334,000000	10,575719
1333,000000	10,551195
1332,000000	10,526624
1331,000000	10,502103
1330,000000	10,476985
1329,000000	10,452516
1328,000000	10,428726
1327,000000	10,404814
1326,000000	10,380428
1325,000000	10,355874
1324,000000	10,331953
1323,000000	10,307922
1322,000000	10,283225
1321,000000	10,265407
1320,000000	10,235303
1319,000000	10,204144
1318,000000	10,179821
1317,000000	10,155096
1316,000000	10,137998
1315,000000	10,107300
1314,000000	10,076790
1313,000000	10,052241
1312,000000	10,026732
1311,000000	10,002080
1310,000000	9,984920
1309,000000	9,953509
1308,000000	9,922495
1307,000000	9,897916
1306,000000	9,872714
1305,000000	9,848175
1304,000000	9,823403
1303,000000	9,798476
1302,000000	9,773633
1301,000000	9,749666
1300,000000	9,725761
1299,000000	9,701539
1298,000000	9,677491
1297,000000	9,654243
1296,000000	9,631222
1295,000000	9,607469
1294,000000	9,583177
1293,000000	9,559359
1292,000000	9,546914
1291,000000	9,529439
1290,000000	9,499696
1289,000000	9,474009
1288,000000	9,451152
1287,000000	9,427689
1286,000000	9,403715
1285,000000	9,380314
1284,000000	9,368835
1283,000000	9,351523
1282,000000	9,329503
1281,000000	9,307609
1280,000000	9,285881
1279,000000	9,263578
1278,000000	9,242201
1277,000000	9,220985
1276,000000	9,199339
1275,000000	9,177837
1274,000000	9,156543
1273,000000	9,134741
1272,000000	9,113429
1271,000000	9,081163
1270,000000	9,056840
1269,000000	9,036377
1268,000000	9,016087
1267,000000	8,995247
1266,000000	8,974812
1265,000000	8,963233
1264,000000	8,934748
1263,000000	8,912339
1262,000000	8,892278
1261,000000	8,873459
1260,000000	8,854771
1259,000000	8,836161
1258,000000	8,817786
1257,000000	8,800090
1256,000000	8,783152
1255,000000	8,766220
1254,000000	8,749645
1253,000000	8,732431
1252,000000	8,715692
1251,000000	8,699735
1250,000000	8,683644
1249,000000	8,667620
1248,000000	8,653095
1247,000000	8,637648
1246,000000	8,623034
1245,000000	8,608100
1244,000000	8,592768
1243,000000	8,577693
1242,000000	8,563129
1241,000000	8,549732
1240,000000	8,535920
1239,000000	8,529376
1238,000000	8,517396
1237,000000	8,492249
1236,000000	8,477004
1235,000000	8,464715
1234,000000	8,451867
1233,000000	8,447100
1232,000000	8,424822
1231,000000	8,411802
1230,000000	8,400730
1229,000000	8,396477
1228,000000	8,374312
1227,000000	8,362505
1226,000000	8,352688
1225,000000	8,336520
1224,000000	8,325134
1223,000000	8,315907
1222,000000	8,307425
1221,000000	8,303205
1220,000000	8,294366
1219,000000	8,276120
1218,000000	8,267918
1217,000000	8,261386
1216,000000	8,254671
1215,000000	8,247399
1214,000000	8,241269
1213,000000	8,235272
1212,000000	8,228396
1211,000000	8,221654
1210,000000	8,214192
1209,000000	8,207184
1208,000000	8,201258
1207,000000	8,196649
1206,000000	8,192131
1205,000000	8,187118
1204,000000	8,182421
1203,000000	8,176927
1202,000000	8,170948
1201,000000	8,166031
1200,000000	8,161728
1199,000000	8,157021
1198,000000	8,152652
1197,000000	8,148983
1196,000000	8,145071
1195,000000	8,141330
1194,000000	8,136925
1193,000000	8,133912
1192,000000	8,130504
1191,000000	8,126925
1190,000000	8,118184
1189,000000	8,116178
1188,000000	8,114113
1187,000000	8,112084
1186,000000	8,109141
1185,000000	8,106913
1184,000000	8,105770
1183,000000	8,104699
1182,000000	8,103625
1181,000000	8,103225
1180,000000	8,101726
1179,000000	8,099966
1178,000000	8,099207
1177,000000	8,099886
1176,000000	8,099888
1175,000000	8,099136
1174,000000	8,099176
1173,000000	8,100080
1172,000000	8,099992
1171,000000	8,099909
1170,000000	8,099475
1169,000000	8,099453
1168,000000	8,099956
1167,000000	8,100330
1166,000000	8,101008
1165,000000	8,101317
1164,000000	8,101664
1163,000000	8,102282
1162,000000	8,103753
1161,000000	8,105246
1160,000000	8,105680
1159,000000	8,107299
1158,000000	8,109111
1157,000000	8,110308
1156,000000	8,111192
1155,000000	8,112649
1154,000000	8,114117
1153,000000	8,115614
1152,000000	8,116935
1151,000000	8,118729
1150,000000	8,120084
1149,000000	8,121549
1148,000000	8,122544
1147,000000	8,124268
1146,000000	8,126013
1145,000000	8,128260
1144,000000	8,130075
1143,000000	8,132274
1142,000000	8,135038
1141,000000	8,137636
1140,000000	8,139159
1139,000000	8,141446
1138,000000	8,143756
1137,000000	8,146843
1136,000000	8,150082
1135,000000	8,152812
1134,000000	8,154749
1133,000000	8,157501
1132,000000	8,159656
1131,000000	8,162425
1130,000000	8,165185
1129,000000	8,167115
1128,000000	8,169446
1127,000000	8,172288
1126,000000	8,175206
1125,000000	8,177430
1124,000000	8,179593
1123,000000	8,183208
1122,000000	8,186761
1121,000000	8,190475
1120,000000	8,194556
1119,000000	8,198296
1118,000000	8,201540
1117,000000	8,205102
1116,000000	8,208484
1115,000000	8,212562
1114,000000	8,216556
1113,000000	8,219924
1112,000000	8,223747
1111,000000	8,227658
1110,000000	8,231833
1109,000000	8,236747
1108,000000	8,241726
1107,000000	8,246705
1106,000000	8,251482
1105,000000	8,256468
1104,000000	8,261734
1103,000000	8,266873
1102,000000	8,272610
1101,000000	8,278138
1100,000000	8,283123
1099,000000	8,288889
1098,000000	8,295025
1097,000000	8,301549
1096,000000	8,308140
1095,000000	8,314819
1094,000000	8,321893
1093,000000	8,329054
1092,000000	8,335974
1091,000000	8,343299
1090,000000	8,351298
1089,000000	8,359586
1088,000000	8,367990
1087,000000	8,376691
1086,000000	8,385428
1085,000000	8,394631
1084,000000	8,404144
1083,000000	8,414697
1082,000000	8,425784
1081,000000	8,437050
1080,000000	8,447279
1079,000000	8,457033
1078,000000	8,467512
1077,000000	8,479497
1076,000000	8,491838
1075,000000	8,505076
1074,000000	8,518561
1073,000000	8,532011
1072,000000	8,545592
1071,000000	8,559375
1070,000000	8,572831
1069,000000	8,586686
1068,000000	8,600984
1067,000000	8,615994
1066,000000	8,632265
1065,000000	8,649402
1064,000000	8,666809
1063,000000	8,684289
1062,000000	8,701630
1061,000000	8,718499
1060,000000	8,735758
1059,000000	8,754791
1058,000000	8,774513
1057,000000	8,793969
1056,000000	8,812553
1055,000000	8,831967
1054,000000	8,853720
1053,000000	8,876064
1052,000000	8,897344
1051,000000	8,918167
1050,000000	8,940206
1049,000000	8,962767
1048,000000	8,985733
1047,000000	9,009019
1046,000000	9,032905
1045,000000	9,056866
1044,000000	9,081226
1043,000000	9,106428
1042,000000	9,131139
1041,000000	9,155491
1040,000000	9,179352
1039,000000	9,203891
1038,000000	9,231114
1037,000000	9,258578
1036,000000	9,286081
1035,000000	9,314165
1034,000000	9,342326
1033,000000	9,371230
1032,000000	9,400442
1031,000000	9,429339
1030,000000	9,458747
1029,000000	9,489315
1028,000000	9,519391
1027,000000	9,549051
1026,000000	9,579623
1025,000000	9,610454
1024,000000	9,641295
1023,000000	9,673332
1022,000000	9,706352
1021,000000	9,738952
1020,000000	9,771521
1019,000000	9,806012
1018,000000	9,839280
1017,000000	9,871995
1016,000000	9,904377
1015,000000	9,936381
1014,000000	9,969663
1013,000000	10,003878
1012,000000	10,038297
1011,000000	10,071734
1010,000000	10,105744
1009,000000	10,139781
1008,000000	10,172826
1007,000000	10,207073
1006,000000	10,242499
1005,000000	10,277767
1004,000000	10,310970
1003,000000	10,343913
1002,000000	10,377648
1001,000000	10,412069
1000,000000	10,445849
999,000000	10,480216
998,000000	10,514052
997,000000	10,547777
996,000000	10,580901
995,000000	10,614664
994,000000	10,647887
993,000000	10,680944
992,000000	10,714873
991,000000	10,748778
990,000000	10,782558
989,000000	10,815721
988,000000	10,848746
987,000000	10,881865
986,000000	10,915606
985,000000	10,948366
984,000000	10,981128
983,000000	11,013878
982,000000	11,047226
981,000000	11,079940
980,000000	11,111665
979,000000	11,142091
978,000000	11,173783
977,000000	11,206346
976,000000	11,239874
975,000000	11,272569
974,000000	11,304220
973,000000	11,336764
972,000000	11,368286
971,000000	11,401268
970,000000	11,434455
969,000000	11,467818
968,000000	11,499486
967,000000	11,530805
966,000000	11,562080
965,000000	11,593047
964,000000	11,624374
963,000000	11,656388
962,000000	11,688633
961,000000	11,721928
960,000000	11,755430
959,000000	11,788933
958,000000	11,823027
957,000000	11,857061
956,000000	11,892101
955,000000	11,926482
954,000000	11,961922
953,000000	11,997584
952,000000	12,033199
951,000000	12,070112
950,000000	12,106445
949,000000	12,142035
948,000000	12,179821
947,000000	12,218767
946,000000	12,256796
945,000000	12,295895
944,000000	12,335825
943,000000	12,375422
942,000000	12,416372
941,000000	12,457281
940,000000	12,499985
939,000000	12,542371
938,000000	12,584419
937,000000	12,627937
936,000000	12,672938
935,000000	12,719247
934,000000	12,764805
933,000000	12,811941
932,000000	12,859754
931,000000	12,910429
930,000000	12,959287
929,000000	13,008516
928,000000	13,057881
927,000000	13,108085
926,000000	13,159146
925,000000	13,209514
924,000000	13,259862
923,000000	13,312147
922,000000	13,364969
921,000000	13,420583
920,000000	13,473846
919,000000	13,527446
918,000000	13,584735
917,000000	13,640897
916,000000	13,696638
915,000000	13,754642
914,000000	13,810617
913,000000	13,868895
912,000000	13,930229
911,000000	13,987995
910,000000	14,048263
909,000000	14,108729
908,000000	14,169155
907,000000	14,228622
906,000000	14,290372
905,000000	14,353799
904,000000	14,414402
903,000000	14,477471
902,000000	14,537935
901,000000	14,598492
900,000000	14,660002
899,000000	14,717114
898,000000	14,776288
897,000000	14,838984
896,000000	14,901926
895,000000	14,962105
894,000000	15,019779
893,000000	15,077250
892,000000	15,134433
891,000000	15,190664
890,000000	15,248328
889,000000	15,307846
888,000000	15,362248
887,000000	15,417753
886,000000	15,475112
885,000000	15,530981
884,000000	15,584282
883,000000	15,634476
882,000000	15,692711
881,000000	15,742784
880,000000	15,796627
879,000000	15,847849
878,000000	15,899750
877,000000	15,947891
876,000000	15,996912
875,000000	16,048963
874,000000	16,096216
873,000000	16,149795
872,000000	16,196581
871,000000	16,239042
870,000000	16,283311
869,000000	16,335046
868,000000	16,382177
867,000000	16,429614
866,000000	16,478869
865,000000	16,521258
864,000000	16,571878
863,000000	16,619857
862,000000	16,667631
861,000000	16,715320
860,000000	18,019425
859,000000	18,027521
858,000000	18,083719
857,000000	18,090737
856,000000	18,140957
855,000000	18,181568
854,000000	18,217801
853,000000	18,287168
852,000000	18,337128
851,000000	18,372433
850,000000	18,414457
849,000000	18,460141
848,000000	18,513504
847,000000	18,544491
846,000000	18,601566
845,000000	18,657055
844,000000	18,703906
843,000000	18,741207
842,000000	18,800686
841,000000	18,852096
840,000000	18,913030
839,000000	18,945726
838,000000	19,000566
837,000000	19,058180
836,000000	19,114625
835,000000	19,169507
834,000000	19,226214
833,000000	19,280874
832,000000	19,350225
831,000000	19,403410
830,000000	19,459281
829,000000	19,527622
828,000000	19,594882
827,000000	19,648922
826,000000	19,723707
825,000000	19,785144
824,000000	19,852898
823,000000	19,922894
822,000000	19,985698
821,000000	20,062579
820,000000	20,126738
819,000000	20,194863
818,000000	20,265490
817,000000	20,331814
816,000000	20,396296
815,000000	20,465573
814,000000	20,535479
813,000000	20,598366
812,000000	20,662798
811,000000	20,737903
810,000000	20,791130
809,000000	20,849709
808,000000	20,911891
807,000000	20,975781
806,000000	21,033372
805,000000	21,092009
804,000000	21,151350
803,000000	21,206927
802,000000	21,260112
801,000000	21,309540
800,000000	21,360196
799,000000	21,415089
798,000000	21,466739
797,000000	21,510430
796,000000	21,554157
795,000000	21,592854
794,000000	21,634609
793,000000	21,666471
792,000000	21,711486
791,000000	21,750633
790,000000	21,789873
789,000000	21,820477
788,000000	21,850460
787,000000	21,888785
786,000000	21,925876
785,000000	21,956914
784,000000	21,992178
783,000000	22,022291
782,000000	22,061397
781,000000	22,099247
780,000000	22,119368
779,000000	22,156694
778,000000	22,189492
777,000000	22,222765
776,000000	22,255963
775,000000	22,294556
774,000000	22,331255
773,000000	22,366920
772,000000	22,404459
771,000000	22,442264
770,000000	22,481225
769,000000	22,525684
768,000000	22,568686
767,000000	22,606992
766,000000	22,646895
765,000000	22,693073
764,000000	22,739601
763,000000	22,786340
762,000000	22,839304
761,000000	22,898198
760,000000	22,940711
759,000000	22,986669
758,000000	23,048598
757,000000	23,108111
756,000000	23,161833
755,000000	23,217667
754,000000	23,271242
753,000000	23,324423
752,000000	23,386116
751,000000	23,443535
750,000000	23,496527
749,000000	23,547622
748,000000	23,598593
747,000000	23,650912
746,000000	23,704550
745,000000	23,760496
744,000000	23,813460
743,000000	23,855884
742,000000	23,901792
741,000000	23,947215
740,000000	23,984149
739,000000	24,013768
738,000000	24,051446
737,000000	24,087090
736,000000	24,113872
735,000000	24,143487
734,000000	24,169527
733,000000	24,192276
732,000000	24,208010
731,000000	24,226412
730,000000	24,248533
729,000000	24,261208
728,000000	24,270558
727,000000	24,275367
726,000000	24,282934
725,000000	24,288048
724,000000	24,297983
723,000000	24,302291
722,000000	24,299316
721,000000	24,297994
720,000000	24,293493
719,000000	24,296334
718,000000	24,304137
717,000000	24,299711
716,000000	24,287291
715,000000	24,288456
714,000000	24,289584
713,000000	24,289471
712,000000	24,296937
711,000000	24,295326
710,000000	24,297189
709,000000	24,305801
708,000000	24,309583
707,000000	24,315679
706,000000	24,329890
705,000000	24,343287
704,000000	24,356955
703,000000	24,366747
702,000000	24,382196
701,000000	24,403461
700,000000	24,416215
699,000000	24,426548
698,000000	24,444603
697,000000	24,470071
696,000000	24,491518
695,000000	24,502781
694,000000	24,524794
693,000000	24,547808
692,000000	24,568435
691,000000	24,584213
690,000000	24,605548
689,000000	24,618954
688,000000	24,626541
687,000000	24,637557
686,000000	24,647541
685,000000	24,650996
684,000000	24,645989
683,000000	24,635783
682,000000	24,628212
681,000000	24,621722
680,000000	24,606528
679,000000	24,591107
678,000000	24,567593
677,000000	24,538484
676,000000	24,510138
675,000000	24,473159
674,000000	24,433474
673,000000	24,390261
672,000000	24,342825
671,000000	24,298141
670,000000	24,251452
669,000000	24,196789
668,000000	24,144503
667,000000	24,096790
666,000000	24,051146
665,000000	23,991778
664,000000	23,934339
663,000000	23,884864
662,000000	23,832125
661,000000	23,778858
660,000000	23,728167
659,000000	23,680881
658,000000	23,635125
657,000000	23,592463
656,000000	23,546807
655,000000	23,502446
654,000000	23,467049
653,000000	23,429350
652,000000	23,394224
651,000000	23,362122
650,000000	23,336050
649,000000	23,313556
648,000000	23,283161
647,000000	23,255716
646,000000	23,231420
645,000000	23,203607
644,000000	23,172122
643,000000	23,151996
642,000000	23,129000
641,000000	23,100189
640,000000	23,066685
639,000000	23,030267
638,000000	22,987763
637,000000	22,947531
636,000000	22,901676
635,000000	22,854036
634,000000	22,800121
633,000000	22,735100
632,000000	22,675240
631,000000	22,602566
630,000000	22,534438
629,000000	22,455264
628,000000	22,370664
627,000000	22,282110
626,000000	22,190016
625,000000	22,096463
624,000000	21,996768
623,000000	21,897974
622,000000	21,797410
621,000000	21,701417
620,000000	21,599193
619,000000	21,496750
618,000000	21,393478
617,000000	21,295161
616,000000	21,198957
615,000000	21,106138
614,000000	21,012348
613,000000	20,926247
612,000000	20,846696
611,000000	20,762624
610,000000	20,686289
609,000000	20,612026
608,000000	20,542426
607,000000	20,475419
606,000000	20,410832
605,000000	20,343381
604,000000	20,282529
603,000000	20,224769
602,000000	20,169384
601,000000	20,111973
600,000000	20,048296
599,000000	19,992042
598,000000	19,930885
597,000000	19,868011
596,000000	19,799244
595,000000	19,730276
594,000000	19,652622
593,000000	19,580353
592,000000	19,498085
591,000000	19,409987
590,000000	19,326858
589,000000	19,229093
588,000000	19,129448
587,000000	19,027892
586,000000	18,921155
585,000000	18,816716
584,000000	18,712830
583,000000	18,606674
582,000000	18,497285
581,000000	18,385617
580,000000	18,279741
579,000000	18,176740
578,000000	18,080357
577,000000	17,981247
576,000000	17,893927
575,000000	17,803776
574,000000	17,718643
573,000000	17,640753
572,000000	17,564294
571,000000	17,497626
570,000000	17,439282
569,000000	17,381851
568,000000	17,327369
567,000000	17,273030
566,000000	17,231180
565,000000	17,185132
564,000000	17,139105
563,000000	17,098135
562,000000	17,041324
561,000000	16,994684
560,000000	16,959414
559,000000	16,914802
558,000000	16,868233
557,000000	16,820067
556,000000	16,771086
555,000000	16,713591
554,000000	16,656885
553,000000	16,596748
552,000000	16,538517
551,000000	16,475273
550,000000	16,415405
549,000000	16,353164
548,000000	16,298684
547,000000	16,246029
546,000000	16,195655
545,000000	16,149141
544,000000	16,107202
543,000000	16,075863
542,000000	16,044282
541,000000	16,027840
540,000000	16,018397
539,000000	16,013049
538,000000	16,013676
537,000000	16,024290
536,000000	16,036846
535,000000	16,061493
534,000000	16,086736
533,000000	16,120847
532,000000	16,151396
531,000000	16,190652
530,000000	16,227810
529,000000	16,264704
528,000000	16,295395
527,000000	16,333238
526,000000	16,363150
525,000000	16,393421
524,000000	16,419871
523,000000	16,441910
522,000000	16,457792
521,000000	16,474360
520,000000	16,489958
519,000000	16,508158
518,000000	16,526256
517,000000	16,552573
516,000000	16,577380
515,000000	16,609323
514,000000	16,647993
513,000000	16,692123
512,000000	16,745238
511,000000	16,805401
510,000000	16,877305
509,000000	16,958064
508,000000	17,046754
507,000000	17,147851
506,000000	17,254678
505,000000	17,363554
504,000000	17,480244
503,000000	17,593707
502,000000	17,706624
501,000000	17,823036
500,000000	17,931059
499,000000	18,029349
498,000000	18,132046
497,000000	18,225443
496,000000	18,310724
495,000000	18,393546
494,000000	18,469379
493,000000	18,546442
492,000000	18,627827
491,000000	18,708844
490,000000	18,796005
489,000000	18,888416
488,000000	18,999556
487,000000	19,113820
486,000000	19,239971
485,000000	19,383458
484,000000	19,532413
483,000000	19,692522
482,000000	19,857810
481,000000	20,021539
480,000000	20,183753
479,000000	20,329047
478,000000	20,459572
477,000000	20,576439
476,000000	20,673447
475,000000	20,755804
474,000000	20,823633
473,000000	20,873843
472,000000	20,907518
471,000000	20,936607
470,000000	20,961943
469,000000	20,974533
468,000000	20,990167
467,000000	21,009617
466,000000	21,033777
465,000000	21,064090
464,000000	21,094363
463,000000	21,128732
462,000000	21,164349
461,000000	21,188414
460,000000	21,200192
459,000000	21,190194
458,000000	21,155463
457,000000	21,099267
456,000000	21,013887
455,000000	20,904527
454,000000	20,774513
453,000000	20,632382
452,000000	20,478660
451,000000	20,317246
450,000000	20,159123
449,000000	20,003956
448,000000	19,860040
447,000000	19,726839
446,000000	19,596748
445,000000	19,462193
444,000000	19,326163
443,000000	19,178901
442,000000	19,009560
441,000000	18,820582
440,000000	18,610442
439,000000	18,377608
438,000000	18,123765
437,000000	17,858568
436,000000	17,590756
435,000000	17,332570
434,000000	17,093836
433,000000	16,872050
432,000000	16,671042
431,000000	16,490746
430,000000	16,324090
429,000000	16,156502
428,000000	15,966567
427,000000	15,754213
426,000000	15,519120
425,000000	15,260834
424,000000	14,982561
423,000000	14,683023
422,000000	14,374602
421,000000	14,053139
420,000000	13,713249
419,000000	13,357636
418,000000	12,982207
417,000000	12,584399
416,000000	12,174457
415,000000	11,764149
414,000000	11,365669
413,000000	10,993391
412,000000	10,652598
411,000000	10,349533
410,000000	10,085969
409,000000	9,856119
408,000000	9,659430
407,000000	9,494106
406,000000	9,354441
405,000000	9,237712
404,000000	9,140385
403,000000	9,057539
402,000000	8,985873
401,000000	8,926731
400,000000	8,868320
399,000000	8,815844
398,000000	8,767728
397,000000	8,715718
396,000000	8,660632
395,000000	8,607239
394,000000	8,555886
393,000000	8,499167
392,000000	8,442644
391,000000	8,383059
390,000000	8,322819
389,000000	8,266119
388,000000	8,213948
387,000000	8,169273
386,000000	8,122354
385,000000	8,082145
384,000000	8,046874
383,000000	8,018627
382,000000	8,001178
381,000000	7,983867
380,000000	7,965992
379,000000	7,901415
378,000000	7,831547
377,000000	7,801738
376,000000	7,789979
375,000000	7,793929
374,000000	7,779971
373,000000	7,785668
372,000000	7,767663
371,000000	7,752393
370,000000	7,714978
369,000000	7,682226
368,000000	7,641449
367,000000	7,601343
366,000000	7,550246
365,000000	7,502793
364,000000	7,448084
363,000000	7,380425
362,000000	7,313969
361,000000	7,242544
360,000000	7,153839
359,000000	7,075789
358,000000	6,979932
357,000000	6,885172
356,000000	6,780741
355,000000	6,672486
354,000000	6,546487
353,000000	6,440018
352,000000	6,328853
351,000000	6,212890
350,000000	6,098062
349,000000	5,990084
348,000000	5,872554
347,000000	5,779536
346,000000	5,683221
345,000000	5,587339
344,000000	5,493170
343,000000	5,412361
342,000000	5,318862
341,000000	5,236886
340,000000	5,168213
339,000000	5,090960
338,000000	5,022584
337,000000	4,947943
336,000000	4,874468
335,000000	4,808255
334,000000	4,745739
333,000000	4,682096
332,000000	4,613491
331,000000	4,557923
330,000000	4,487582
329,000000	4,422840
328,000000	4,375589
327,000000	4,297435
326,000000	4,234586
325,000000	4,156360
324,000000	4,079347
323,000000	4,009824
322,000000	3,960024
321,000000	3,911779
320,000000	3,858266
319,000000	3,799561
318,000000	3,746189
317,000000	3,701668
316,000000	3,654163
315,000000	3,614489
314,000000	3,580649
313,000000	3,545441
312,000000	3,514067
311,000000	3,482977
310,000000	3,452282
309,000000	3,432684
308,000000	3,414342
307,000000	3,394986
306,000000	3,387026
305,000000	3,379370
304,000000	3,374530
303,000000	3,366452
302,000000	3,362319
301,000000	3,355699
300,000000	3,343730
299,000000	3,327574
298,000000	3,304357
297,000000	3,279936
296,000000	3,252472
295,000000	3,215978
294,000000	3,184806
293,000000	3,145238
292,000000	3,103750
291,000000	3,053052
290,000000	2,996708
289,000000	2,931299
288,000000	2,852607
287,000000	2,761474
286,000000	2,656934
285,000000	2,534032
284,000000	2,391863
283,000000	2,248890
282,000000	2,085512
281,000000	1,915724
280,000000	1,739525
279,000000	1,558181
278,000000	1,373460
277,000000	1,189213
276,000000	1,012515
275,000000	0,846015
274,000000	0,699008
273,000000	0,574031
272,000000	0,469333
271,000000	0,391229
270,000000	0,340335
269,000000	0,309724
268,000000	0,290406
267,000000	0,277252
266,000000	0,266400
265,000000	0,253173
264,000000	0,238078
263,000000	0,227725
262,000000	0,222159
261,000000	0,219592
260,000000	0,217477
259,000000	0,220972
258,000000	0,221039
257,000000	0,222876
256,000000	0,221139
255,000000	0,219237
254,000000	0,221409
253,000000	0,217973
252,000000	0,217809
251,000000	0,216145
250,000000	0,216975
249,000000	0,216742
248,000000	0,217003
247,000000	0,215141
246,000000	0,214901
245,000000	0,215654
244,000000	0,216961
243,000000	0,218011
242,000000	0,219502
241,000000	0,219196
240,000000	0,220722
239,000000	0,220849
238,000000	0,223108
237,000000	0,225251
236,000000	0,228679
235,000000	0,228990
234,000000	0,230323
233,000000	0,228051
232,000000	0,227764
231,000000	0,229810
230,000000	0,229732
229,000000	0,229157
228,000000	0,229162
227,000000	0,229911
226,000000	0,229566
225,000000	0,228801
224,000000	0,228554
223,000000	0,227713
222,000000	0,228074
221,000000	0,227202
220,000000	0,228445
219,000000	0,229124
218,000000	0,225725
217,000000	0,225759
216,000000	0,226353
215,000000	0,227392
214,000000	0,228308
213,000000	0,230872
212,000000	0,230969
211,000000	0,232260
210,000000	0,232283
209,000000	0,235703
208,000000	0,235859
207,000000	0,237130
206,000000	0,240333
205,000000	0,243563
204,000000	0,243798
203,000000	0,246036
202,000000	0,249351
201,000000	0,249469
200,000000	0,253885
