PE UV       SUBTECH     SPECTRUM    ASCII       PEDS        4.00        
   -1
czoom.Sample.asc
22/03/23
16:19:04.00
22/03/23
16:19:04.00
Administrator

350,000000
1
Lambda 1050
1050L1808311
PerkinElmer UV WinLab 6.4.0.973 / 2.02.11 Lambda 900 UV/VIS/NIR, May 23 2018 11:23:04

0
0
3350/servo 1800,8/servo 860,8/1
0
0
UV/VIS
1
1
1
CommonBeamDepol,RBeamAtt,SBeamAtt,uv/vis/nir detector, TDS WB InGaAs Detector
0
0
0
0
Program
 
0
3350/0,2 1800,8/0,2 860,8/0,2
0
0
0
 
 
 
0
 
860,8
319,2
1800,8 860,8
Front
100
on
S:100 R:100
 
0
0
0
 
0
 
 
 
0
 
 
0
0
0
0
0
 
 
 
 
0
0


0
0
#HDR
-1
-1
#GR
nm
%T
1.0
0.0
600,000000
-0,500000
501
8
22,660461
6,658286
#DATA
600,000000	22,104363
599,500000	22,068033
599,000000	22,027144
598,500000	21,994916
598,000000	21,956571
597,500000	21,912952
597,000000	21,871677
596,500000	21,831720
596,000000	21,794882
595,500000	21,752950
595,000000	21,711656
594,500000	21,681575
594,000000	21,639400
593,500000	21,606437
593,000000	21,578279
592,500000	21,535496
592,000000	21,498666
591,500000	21,467895
591,000000	21,423882
590,500000	21,387860
590,000000	21,351869
589,500000	21,305683
589,000000	21,275060
588,500000	21,239158
588,000000	21,191007
587,500000	21,158519
587,000000	21,125106
586,500000	21,082747
586,000000	21,039437
585,500000	20,992623
585,000000	20,949599
584,500000	20,904478
584,000000	20,854274
583,500000	20,814626
583,000000	20,761269
582,500000	20,714549
582,000000	20,659933
581,500000	20,615023
581,000000	20,567235
580,500000	20,511551
580,000000	20,461569
579,500000	20,400098
579,000000	20,346212
578,500000	20,292085
578,000000	20,236411
577,500000	20,173764
577,000000	20,116844
576,500000	20,059638
576,000000	19,993427
575,500000	19,928716
575,000000	19,875176
574,500000	19,814323
574,000000	19,751893
573,500000	19,693852
573,000000	19,630008
572,500000	19,564099
572,000000	19,499590
571,500000	19,441708
571,000000	19,385736
570,500000	19,323718
570,000000	19,269489
569,500000	19,211219
569,000000	19,157395
568,500000	19,104357
568,000000	19,048713
567,500000	18,996432
567,000000	18,942988
566,500000	18,887204
566,000000	18,836594
565,500000	18,788734
565,000000	18,745171
564,500000	18,703089
564,000000	18,654280
563,500000	18,614233
563,000000	18,571920
562,500000	18,526457
562,000000	18,482309
561,500000	18,444027
561,000000	18,409397
560,500000	18,372698
560,000000	18,345012
559,500000	18,315077
559,000000	18,277651
558,500000	18,246494
558,000000	18,209907
557,500000	18,186549
557,000000	18,160533
556,500000	18,130428
556,000000	18,106754
555,500000	18,079457
555,000000	18,056561
554,500000	18,031134
554,000000	18,007652
553,500000	17,983530
553,000000	17,958477
552,500000	17,932641
552,000000	17,910593
551,500000	17,881650
551,000000	17,856656
550,500000	17,829127
550,000000	17,804762
549,500000	17,774775
549,000000	17,745757
548,500000	17,718371
548,000000	17,692721
547,500000	17,666339
547,000000	17,636246
546,500000	17,602187
546,000000	17,575432
545,500000	17,543926
545,000000	17,516006
544,500000	17,483282
544,000000	17,451659
543,500000	17,419849
543,000000	17,389590
542,500000	17,353905
542,000000	17,320354
541,500000	17,291954
541,000000	17,263031
540,500000	17,230174
540,000000	17,198655
539,500000	17,171026
539,000000	17,139967
538,500000	17,113085
538,000000	17,089919
537,500000	17,061196
537,000000	17,035751
536,500000	17,010291
536,000000	16,991520
535,500000	16,975902
535,000000	16,958597
534,500000	16,942016
534,000000	16,929973
533,500000	16,918022
533,000000	16,906916
532,500000	16,900023
532,000000	16,894698
531,500000	16,890138
531,000000	16,885548
530,500000	16,884638
530,000000	16,886799
529,500000	16,888620
529,000000	16,893925
528,500000	16,905929
528,000000	16,915734
527,500000	16,922955
527,000000	16,933508
526,500000	16,947662
526,000000	16,962553
525,500000	16,975067
525,000000	16,989883
524,500000	17,008560
524,000000	17,028907
523,500000	17,048247
523,000000	17,070339
522,500000	17,094273
522,000000	17,109959
521,500000	17,128102
521,000000	17,148412
520,500000	17,166401
520,000000	17,182414
519,500000	17,199865
519,000000	17,217716
518,500000	17,236873
518,000000	17,254919
517,500000	17,270967
517,000000	17,289424
516,500000	17,309344
516,000000	17,322487
515,500000	17,336618
515,000000	17,349802
514,500000	17,360736
514,000000	17,374949
513,500000	17,387273
513,000000	17,399859
512,500000	17,415162
512,000000	17,427526
511,500000	17,444621
511,000000	17,459572
510,500000	17,475718
510,000000	17,493692
509,500000	17,509757
509,000000	17,534248
508,500000	17,559876
508,000000	17,582139
507,500000	17,608920
507,000000	17,644228
506,500000	17,675686
506,000000	17,708848
505,500000	17,742346
505,000000	17,783594
504,500000	17,826140
504,000000	17,867075
503,500000	17,917663
503,000000	17,970076
502,500000	18,018056
502,000000	18,070718
501,500000	18,135148
501,000000	18,200652
500,500000	18,263474
500,000000	18,321815
499,500000	18,387067
499,000000	18,461207
498,500000	18,530984
498,000000	18,606431
497,500000	18,683575
497,000000	18,761941
496,500000	18,834023
496,000000	18,909771
495,500000	18,981925
495,000000	19,059199
494,500000	19,135418
494,000000	19,205028
493,500000	19,282197
493,000000	19,360012
492,500000	19,429249
492,000000	19,500570
491,500000	19,564981
491,000000	19,624255
490,500000	19,687889
490,000000	19,749070
489,500000	19,814491
489,000000	19,870632
488,500000	19,919800
488,000000	19,976253
487,500000	20,039675
487,000000	20,100241
486,500000	20,153782
486,000000	20,205421
485,500000	20,257525
485,000000	20,308968
484,500000	20,367692
484,000000	20,421094
483,500000	20,476346
483,000000	20,532440
482,500000	20,592302
482,000000	20,645040
481,500000	20,697624
481,000000	20,764610
480,500000	20,832221
480,000000	20,896682
479,500000	20,968298
479,000000	21,042603
478,500000	21,113494
478,000000	21,192464
477,500000	21,269208
477,000000	21,347416
476,500000	21,418495
476,000000	21,492286
475,500000	21,572350
475,000000	21,652447
474,500000	21,731974
474,000000	21,804996
473,500000	21,872175
473,000000	21,947552
472,500000	22,019839
472,000000	22,080859
471,500000	22,138806
471,000000	22,203475
470,500000	22,253450
470,000000	22,313213
469,500000	22,350921
469,000000	22,390962
468,500000	22,428719
468,000000	22,457132
467,500000	22,485939
467,000000	22,508201
466,500000	22,524394
466,000000	22,544933
465,500000	22,558580
465,000000	22,568051
464,500000	22,573152
464,000000	22,575691
463,500000	22,577386
463,000000	22,589621
462,500000	22,596390
462,000000	22,593076
461,500000	22,598532
461,000000	22,595229
460,500000	22,601038
460,000000	22,617754
459,500000	22,614261
459,000000	22,620410
458,500000	22,641390
458,000000	22,633324
457,500000	22,653650
457,000000	22,659383
456,500000	22,655481
456,000000	22,660461
455,500000	22,652346
455,000000	22,657817
454,500000	22,642504
454,000000	22,634644
453,500000	22,614420
453,000000	22,593573
452,500000	22,550669
452,000000	22,533498
451,500000	22,472332
451,000000	22,414441
450,500000	22,354232
450,000000	22,284575
449,500000	22,209572
449,000000	22,125020
448,500000	22,042655
448,000000	21,937228
447,500000	21,851000
447,000000	21,746427
446,500000	21,651813
446,000000	21,540104
445,500000	21,426899
445,000000	21,312380
444,500000	21,209922
444,000000	21,105887
443,500000	21,009024
443,000000	20,905790
442,500000	20,806523
442,000000	20,704725
441,500000	20,613557
441,000000	20,508949
440,500000	20,427723
440,000000	20,322672
439,500000	20,218911
439,000000	20,130969
438,500000	20,030724
438,000000	19,915389
437,500000	19,802285
437,000000	19,695000
436,500000	19,580392
436,000000	19,454542
435,500000	19,321044
435,000000	19,175557
434,500000	19,031692
434,000000	18,874685
433,500000	18,728923
433,000000	18,570306
432,500000	18,406025
432,000000	18,243147
431,500000	18,088586
431,000000	17,919183
430,500000	17,762559
430,000000	17,609320
429,500000	17,453449
429,000000	17,311489
428,500000	17,165000
428,000000	17,025623
427,500000	16,893820
427,000000	16,762045
426,500000	16,613277
426,000000	16,479812
425,500000	16,352351
425,000000	16,199583
424,500000	16,061272
424,000000	15,908317
423,500000	15,750526
423,000000	15,583566
422,500000	15,402338
422,000000	15,218854
421,500000	15,028824
421,000000	14,823133
420,500000	14,611179
420,000000	14,402722
419,500000	14,185889
419,000000	13,965998
418,500000	13,762662
418,000000	13,545439
417,500000	13,341369
417,000000	13,126272
416,500000	12,915805
416,000000	12,710544
415,500000	12,504047
415,000000	12,306641
414,500000	12,121347
414,000000	11,935713
413,500000	11,755953
413,000000	11,578516
412,500000	11,414666
412,000000	11,252130
411,500000	11,101226
411,000000	10,962805
410,500000	10,830128
410,000000	10,714299
409,500000	10,597780
409,000000	10,493583
408,500000	10,398336
408,000000	10,309147
407,500000	10,224271
407,000000	10,149614
406,500000	10,087701
406,000000	10,022030
405,500000	9,961933
405,000000	9,906203
404,500000	9,863739
404,000000	9,820674
403,500000	9,766822
403,000000	9,727190
402,500000	9,693670
402,000000	9,660865
401,500000	9,631955
401,000000	9,601636
400,500000	9,574684
400,000000	9,544571
399,500000	9,513894
399,000000	9,489967
398,500000	9,465432
398,000000	9,438344
397,500000	9,409537
397,000000	9,381260
396,500000	9,351897
396,000000	9,323474
395,500000	9,299401
395,000000	9,267580
394,500000	9,240803
394,000000	9,208746
393,500000	9,177251
393,000000	9,150533
392,500000	9,116560
392,000000	9,085127
391,500000	9,057145
391,000000	9,025643
390,500000	8,995105
390,000000	8,963795
389,500000	8,936380
389,000000	8,912282
388,500000	8,884222
388,000000	8,852941
387,500000	8,827690
387,000000	8,804165
386,500000	8,780890
386,000000	8,755532
385,500000	8,735116
385,000000	8,717788
384,500000	8,697697
384,000000	8,680888
383,500000	8,666244
383,000000	8,651386
382,500000	8,638311
382,000000	8,621992
381,500000	8,610105
381,000000	8,598541
380,500000	8,585940
380,000000	8,580283
379,500000	8,574098
379,000000	8,563792
378,500000	8,511321
378,000000	8,456174
377,500000	8,454134
377,000000	8,449843
376,500000	8,453374
376,000000	8,474429
375,500000	8,466599
375,000000	8,456386
374,500000	8,450299
374,000000	8,447146
373,500000	8,436039
373,000000	8,425212
372,500000	8,424936
372,000000	8,424973
371,500000	8,411454
371,000000	8,371386
370,500000	8,352761
370,000000	8,358093
369,500000	8,341965
369,000000	8,307707
368,500000	8,305391
368,000000	8,306214
367,500000	8,278792
367,000000	8,244020
366,500000	8,209497
366,000000	8,186785
365,500000	8,176691
365,000000	8,157395
364,500000	8,128294
364,000000	8,100611
363,500000	8,062577
363,000000	8,020157
362,500000	7,990317
362,000000	7,953838
361,500000	7,903822
361,000000	7,860493
360,500000	7,816324
360,000000	7,773663
359,500000	7,725493
359,000000	7,687437
358,500000	7,641031
358,000000	7,603155
357,500000	7,541248
357,000000	7,479406
356,500000	7,443872
356,000000	7,380218
355,500000	7,311542
355,000000	7,254864
354,500000	7,198342
354,000000	7,130674
353,500000	7,084640
353,000000	7,022902
352,500000	6,934689
352,000000	6,893182
351,500000	6,838370
351,000000	6,779157
350,500000	6,720659
350,000000	6,658286
