PE UV       SUBTECH     SPECTRUM    ASCII       PEDS        4.00        
   -1
Q1.Sample.asc
22/03/23
15:19:58.00
22/03/23
15:19:58.00
Administrator

200,000000
1
Lambda 1050
1050L1808311
PerkinElmer UV WinLab 6.4.0.973 / 2.02.11 Lambda 900 UV/VIS/NIR, May 23 2018 11:23:04

0
0
3350/servo 1800,8/servo 860,8/2
0
0
UV/VIS
1
1
1
CommonBeamDepol,RBeamAtt,SBeamAtt,uv/vis/nir detector, TDS WB InGaAs Detector
0
0
0
0
Program
Program
3350/servo 1800,8/servo 860,8/2
3350/0,2 1800,8/0,2 860,8/0,2
3350/0,2 1800,8/0,2 860,8/0,2
0
3350/1,00 1800,8/1,00
 
 
 
0
 
860,8
319,2
1800,8 860,8
Front
100
on
S:100 R:100
 
0
0
0
 
0
 
 
 
0
 
 
0
0
0
0
0
 
 
 
 
0
0


0
0
#HDR
-1
-1
#GR
nm
%T
1.0
0.0
2000,000000
-1,000000
1801
8
28,136220
0,262654
#DATA
2000,000000	28,136220
1999,000000	28,095272
1998,000000	28,045415
1997,000000	28,045425
1996,000000	27,994320
1995,000000	27,978723
1994,000000	27,913661
1993,000000	27,923539
1992,000000	27,858636
1991,000000	27,859743
1990,000000	27,799504
1989,000000	27,798036
1988,000000	27,723643
1987,000000	27,731896
1986,000000	27,665534
1985,000000	27,656903
1984,000000	27,589306
1983,000000	27,597954
1982,000000	27,534278
1981,000000	27,528078
1980,000000	27,462103
1979,000000	27,450257
1978,000000	27,410876
1977,000000	27,377207
1976,000000	27,331764
1975,000000	27,325647
1974,000000	27,276228
1973,000000	27,246742
1972,000000	27,198934
1971,000000	27,190108
1970,000000	27,140384
1969,000000	27,119472
1968,000000	27,060784
1967,000000	27,040616
1966,000000	26,997773
1965,000000	26,980195
1964,000000	26,935898
1963,000000	26,915150
1962,000000	26,867323
1961,000000	26,858885
1960,000000	26,808698
1959,000000	26,781652
1958,000000	26,729309
1957,000000	26,710453
1956,000000	26,658623
1955,000000	26,646067
1954,000000	26,589919
1953,000000	26,581801
1952,000000	26,510438
1951,000000	26,490138
1950,000000	26,445043
1949,000000	26,438164
1948,000000	26,379494
1947,000000	26,366288
1946,000000	26,304321
1945,000000	26,285855
1944,000000	26,240010
1943,000000	26,220962
1942,000000	26,177648
1941,000000	26,148506
1940,000000	26,086254
1939,000000	26,058465
1938,000000	26,007313
1937,000000	25,993879
1936,000000	25,954672
1935,000000	25,939704
1934,000000	25,886761
1933,000000	25,862947
1932,000000	25,814180
1931,000000	25,792112
1930,000000	25,723311
1929,000000	25,701467
1928,000000	25,669617
1927,000000	25,644785
1926,000000	25,609906
1925,000000	25,598177
1924,000000	25,552366
1923,000000	25,511393
1922,000000	25,455023
1921,000000	25,426062
1920,000000	25,375345
1919,000000	25,363145
1918,000000	25,341547
1917,000000	25,322821
1916,000000	25,263925
1915,000000	25,212479
1914,000000	25,157530
1913,000000	25,121568
1912,000000	25,088343
1911,000000	25,088978
1910,000000	25,065417
1909,000000	25,040991
1908,000000	24,987733
1907,000000	24,938418
1906,000000	24,884697
1905,000000	24,857003
1904,000000	24,835162
1903,000000	24,825869
1902,000000	24,796850
1901,000000	24,756825
1900,000000	24,694579
1899,000000	24,652486
1898,000000	24,632448
1897,000000	24,618681
1896,000000	24,586757
1895,000000	24,550643
1894,000000	24,493474
1893,000000	24,439689
1892,000000	24,384577
1891,000000	24,352244
1890,000000	24,332307
1889,000000	24,332538
1888,000000	24,295024
1887,000000	24,262128
1886,000000	24,197813
1885,000000	24,157646
1884,000000	24,127857
1883,000000	24,103256
1882,000000	24,081043
1881,000000	24,055846
1880,000000	24,003612
1879,000000	23,962935
1878,000000	23,923901
1877,000000	23,881417
1876,000000	23,838782
1875,000000	23,807310
1874,000000	23,770261
1873,000000	23,734712
1872,000000	23,687348
1871,000000	23,654318
1870,000000	23,632257
1869,000000	23,623933
1868,000000	23,597139
1867,000000	23,566413
1866,000000	23,541459
1865,000000	23,505489
1864,000000	23,451061
1863,000000	23,407118
1862,000000	23,364482
1861,000000	23,324756
1860,000000	23,294614
1859,000000	23,266813
1858,000000	23,240685
1857,000000	23,218880
1856,000000	23,188672
1855,000000	23,151049
1854,000000	23,094165
1853,000000	23,051661
1852,000000	23,027422
1851,000000	23,013089
1850,000000	22,982657
1849,000000	22,917454
1848,000000	22,865020
1847,000000	22,832295
1846,000000	22,829849
1845,000000	22,845957
1844,000000	22,818197
1843,000000	22,746797
1842,000000	22,678541
1841,000000	22,613923
1840,000000	22,594144
1839,000000	22,599099
1838,000000	22,590561
1837,000000	22,551551
1836,000000	22,503466
1835,000000	22,467556
1834,000000	22,454892
1833,000000	22,431285
1832,000000	22,387594
1831,000000	22,334277
1830,000000	22,290880
1829,000000	22,246658
1828,000000	22,238198
1827,000000	22,211714
1826,000000	22,166015
1825,000000	22,134728
1824,000000	22,122758
1823,000000	22,086631
1822,000000	22,036612
1821,000000	21,974601
1820,000000	21,937950
1819,000000	21,935969
1818,000000	21,945952
1817,000000	21,910388
1816,000000	21,858372
1815,000000	21,785610
1814,000000	21,775437
1813,000000	21,745036
1812,000000	21,721618
1811,000000	21,675937
1810,000000	21,669045
1809,000000	21,627912
1808,000000	21,603337
1807,000000	21,552710
1806,000000	21,526239
1805,000000	21,481099
1804,000000	21,468774
1803,000000	21,448884
1802,000000	21,408594
1801,000000	21,363710
1800,000000	20,431961
1799,000000	20,401293
1798,000000	20,371252
1797,000000	20,341212
1796,000000	20,309060
1795,000000	20,276032
1794,000000	20,246819
1793,000000	20,219571
1792,000000	20,188083
1791,000000	20,156798
1790,000000	20,128823
1789,000000	20,099462
1788,000000	20,064875
1787,000000	20,033115
1786,000000	20,003775
1785,000000	19,974793
1784,000000	19,945197
1783,000000	19,913115
1782,000000	19,878622
1781,000000	19,847587
1780,000000	19,816369
1779,000000	19,787284
1778,000000	19,756491
1777,000000	19,726946
1776,000000	19,694777
1775,000000	19,663075
1774,000000	19,626202
1773,000000	19,599478
1772,000000	19,572087
1771,000000	19,545694
1770,000000	19,518237
1769,000000	19,491996
1768,000000	19,465282
1767,000000	19,437420
1766,000000	19,408789
1765,000000	19,380832
1764,000000	19,352851
1763,000000	19,324747
1762,000000	19,296392
1761,000000	19,269110
1760,000000	19,238517
1759,000000	19,205656
1758,000000	19,174881
1757,000000	19,148063
1756,000000	19,118997
1755,000000	19,089764
1754,000000	19,061070
1753,000000	19,031975
1752,000000	19,001688
1751,000000	18,973096
1750,000000	18,946040
1749,000000	18,918907
1748,000000	18,889308
1747,000000	18,858588
1746,000000	18,825461
1745,000000	18,795767
1744,000000	18,768070
1743,000000	18,740697
1742,000000	18,711589
1741,000000	18,683896
1740,000000	18,655645
1739,000000	18,627087
1738,000000	18,599011
1737,000000	18,570058
1736,000000	18,541533
1735,000000	18,514005
1734,000000	18,486826
1733,000000	18,457957
1732,000000	18,430598
1731,000000	18,402261
1730,000000	18,373707
1729,000000	18,344706
1728,000000	18,317207
1727,000000	18,291499
1726,000000	18,265483
1725,000000	18,239315
1724,000000	18,212172
1723,000000	18,184405
1722,000000	18,154886
1721,000000	18,122699
1720,000000	18,095328
1719,000000	18,069533
1718,000000	18,040290
1717,000000	18,010819
1716,000000	17,984262
1715,000000	17,956345
1714,000000	17,928377
1713,000000	17,900892
1712,000000	17,869873
1711,000000	17,839651
1710,000000	17,810163
1709,000000	17,780466
1708,000000	17,752429
1707,000000	17,727574
1706,000000	17,700174
1705,000000	17,669250
1704,000000	17,639692
1703,000000	17,610340
1702,000000	17,579918
1701,000000	17,551701
1700,000000	17,525026
1699,000000	17,498363
1698,000000	17,468314
1697,000000	17,437288
1696,000000	17,407445
1695,000000	17,379191
1694,000000	17,353285
1693,000000	17,328079
1692,000000	17,300811
1691,000000	17,272183
1690,000000	17,242804
1689,000000	17,215064
1688,000000	17,187543
1687,000000	17,159750
1686,000000	17,132690
1685,000000	17,105651
1684,000000	17,077162
1683,000000	17,049499
1682,000000	17,021332
1681,000000	16,992700
1680,000000	16,965844
1679,000000	16,938806
1678,000000	16,911940
1677,000000	16,885938
1676,000000	16,859685
1675,000000	16,833317
1674,000000	16,807565
1673,000000	16,782050
1672,000000	16,756674
1671,000000	16,730478
1670,000000	16,701559
1669,000000	16,672535
1668,000000	16,646121
1667,000000	16,619462
1666,000000	16,593950
1665,000000	16,567673
1664,000000	16,539801
1663,000000	16,511483
1662,000000	16,483422
1661,000000	16,456011
1660,000000	16,428036
1659,000000	16,399625
1658,000000	16,371538
1657,000000	16,344299
1656,000000	16,317743
1655,000000	16,289536
1654,000000	16,261619
1653,000000	16,233914
1652,000000	16,206010
1651,000000	16,177579
1650,000000	16,147114
1649,000000	16,115767
1648,000000	16,086549
1647,000000	16,058854
1646,000000	16,031335
1645,000000	16,003726
1644,000000	15,974282
1643,000000	15,944686
1642,000000	15,915984
1641,000000	15,886034
1640,000000	15,855683
1639,000000	15,825306
1638,000000	15,795088
1637,000000	15,766742
1636,000000	15,738753
1635,000000	15,709079
1634,000000	15,678636
1633,000000	15,648469
1632,000000	15,619039
1631,000000	15,589324
1630,000000	15,560785
1629,000000	15,531481
1628,000000	15,501082
1627,000000	15,471155
1626,000000	15,442335
1625,000000	15,413462
1624,000000	15,384818
1623,000000	15,355267
1622,000000	15,324444
1621,000000	15,293349
1620,000000	15,262238
1619,000000	15,232503
1618,000000	15,202285
1617,000000	15,171017
1616,000000	15,141334
1615,000000	15,110944
1614,000000	15,081766
1613,000000	15,053276
1612,000000	15,021569
1611,000000	14,989587
1610,000000	14,959801
1609,000000	14,930596
1608,000000	14,900599
1607,000000	14,870034
1606,000000	14,839403
1605,000000	14,808918
1604,000000	14,779848
1603,000000	14,750089
1602,000000	14,719979
1601,000000	14,689590
1600,000000	14,657424
1599,000000	14,625284
1598,000000	14,593096
1597,000000	14,562232
1596,000000	14,531431
1595,000000	14,501699
1594,000000	14,471256
1593,000000	14,440583
1592,000000	14,408883
1591,000000	14,377144
1590,000000	14,346427
1589,000000	14,315749
1588,000000	14,285141
1587,000000	14,254442
1586,000000	14,223681
1585,000000	14,191552
1584,000000	14,158868
1583,000000	14,126919
1582,000000	14,095899
1581,000000	14,064611
1580,000000	14,032482
1579,000000	13,999675
1578,000000	13,967619
1577,000000	13,938417
1576,000000	13,909450
1575,000000	13,878697
1574,000000	13,847828
1573,000000	13,816868
1572,000000	13,785206
1571,000000	13,753988
1570,000000	13,722894
1569,000000	13,692589
1568,000000	13,662127
1567,000000	13,630781
1566,000000	13,599633
1565,000000	13,569396
1564,000000	13,536944
1563,000000	13,504898
1562,000000	13,473023
1561,000000	13,443438
1560,000000	13,414306
1559,000000	13,383288
1558,000000	13,352086
1557,000000	13,320046
1556,000000	13,289009
1555,000000	13,259824
1554,000000	13,230583
1553,000000	13,199502
1552,000000	13,168224
1551,000000	13,134984
1550,000000	13,104451
1549,000000	13,074344
1548,000000	13,042031
1547,000000	13,012347
1546,000000	12,982212
1545,000000	12,951898
1544,000000	12,921572
1543,000000	12,891974
1542,000000	12,862131
1541,000000	12,832191
1540,000000	12,803729
1539,000000	12,774874
1538,000000	12,744293
1537,000000	12,714706
1536,000000	12,684806
1535,000000	12,653301
1534,000000	12,621753
1533,000000	12,591656
1532,000000	12,562139
1531,000000	12,534074
1530,000000	12,506659
1529,000000	12,476652
1528,000000	12,447254
1527,000000	12,418352
1526,000000	12,389304
1525,000000	12,359877
1524,000000	12,329275
1523,000000	12,300473
1522,000000	12,270473
1521,000000	12,242756
1520,000000	12,214480
1519,000000	12,185572
1518,000000	12,159268
1517,000000	12,130897
1516,000000	12,102869
1515,000000	12,073971
1514,000000	12,047508
1513,000000	12,020152
1512,000000	11,991469
1511,000000	11,964297
1510,000000	11,936421
1509,000000	11,908513
1508,000000	11,881892
1507,000000	11,854399
1506,000000	11,827598
1505,000000	11,799637
1504,000000	11,773234
1503,000000	11,745053
1502,000000	11,718038
1501,000000	11,691416
1500,000000	11,665646
1499,000000	11,640477
1498,000000	11,615035
1497,000000	11,587208
1496,000000	11,561730
1495,000000	11,534700
1494,000000	11,508954
1493,000000	11,482634
1492,000000	11,455159
1491,000000	11,429021
1490,000000	11,403086
1489,000000	11,377218
1488,000000	11,352616
1487,000000	11,328327
1486,000000	11,304104
1485,000000	11,278463
1484,000000	11,251509
1483,000000	11,226869
1482,000000	11,202248
1481,000000	11,175306
1480,000000	11,149610
1479,000000	11,124667
1478,000000	11,099920
1477,000000	11,075179
1476,000000	11,051020
1475,000000	11,028530
1474,000000	11,003015
1473,000000	10,978514
1472,000000	10,956076
1471,000000	10,932585
1470,000000	10,909575
1469,000000	10,885403
1468,000000	10,862505
1467,000000	10,838116
1466,000000	10,813946
1465,000000	10,791077
1464,000000	10,774448
1463,000000	10,761018
1462,000000	10,732979
1461,000000	10,701251
1460,000000	10,677273
1459,000000	10,654246
1458,000000	10,630194
1457,000000	10,607917
1456,000000	10,587253
1455,000000	10,566032
1454,000000	10,544394
1453,000000	10,520799
1452,000000	10,498355
1451,000000	10,475605
1450,000000	10,454961
1449,000000	10,433443
1448,000000	10,410766
1447,000000	10,385940
1446,000000	10,364427
1445,000000	10,347048
1444,000000	10,330298
1443,000000	10,314828
1442,000000	10,292313
1441,000000	10,268318
1440,000000	10,242959
1439,000000	10,221473
1438,000000	10,197660
1437,000000	10,174896
1436,000000	10,155756
1435,000000	10,136896
1434,000000	10,115788
1433,000000	10,095032
1432,000000	10,075305
1431,000000	10,054752
1430,000000	10,034084
1429,000000	10,013333
1428,000000	9,993666
1427,000000	9,973209
1426,000000	9,953185
1425,000000	9,933339
1424,000000	9,913347
1423,000000	9,892543
1422,000000	9,871670
1421,000000	9,850651
1420,000000	9,830573
1419,000000	9,812333
1418,000000	9,792365
1417,000000	9,772361
1416,000000	9,751565
1415,000000	9,731102
1414,000000	9,712204
1413,000000	9,692959
1412,000000	9,673725
1411,000000	9,654448
1410,000000	9,634703
1409,000000	9,615244
1408,000000	9,598165
1407,000000	9,582463
1406,000000	9,563661
1405,000000	9,543491
1404,000000	9,522664
1403,000000	9,503156
1402,000000	9,484533
1401,000000	9,466390
1400,000000	9,447646
1399,000000	9,428507
1398,000000	9,411128
1397,000000	9,393171
1396,000000	9,374026
1395,000000	9,354993
1394,000000	9,336603
1393,000000	9,316180
1392,000000	9,296401
1391,000000	9,277016
1390,000000	9,257647
1389,000000	9,238414
1388,000000	9,218736
1387,000000	9,199648
1386,000000	9,181397
1385,000000	9,162942
1384,000000	9,143625
1383,000000	9,124568
1382,000000	9,107045
1381,000000	9,089646
1380,000000	9,072360
1379,000000	9,053667
1378,000000	9,034820
1377,000000	9,016516
1376,000000	8,998321
1375,000000	8,979795
1374,000000	8,960779
1373,000000	8,941458
1372,000000	8,922788
1371,000000	8,904643
1370,000000	8,885299
1369,000000	8,865425
1368,000000	8,846301
1367,000000	8,827139
1366,000000	8,807533
1365,000000	8,786569
1364,000000	8,766092
1363,000000	8,746477
1362,000000	8,727251
1361,000000	8,708055
1360,000000	8,689067
1359,000000	8,670046
1358,000000	8,651008
1357,000000	8,632836
1356,000000	8,615043
1355,000000	8,596807
1354,000000	8,578712
1353,000000	8,560295
1352,000000	8,541418
1351,000000	8,522968
1350,000000	8,504465
1349,000000	8,486556
1348,000000	8,469136
1347,000000	8,451215
1346,000000	8,435030
1345,000000	8,422796
1344,000000	8,411778
1343,000000	8,397280
1342,000000	8,379582
1341,000000	8,360517
1340,000000	8,341762
1339,000000	8,331553
1338,000000	8,313132
1337,000000	8,283164
1336,000000	8,268329
1335,000000	8,256821
1334,000000	8,238487
1333,000000	8,220005
1332,000000	8,201214
1331,000000	8,182552
1330,000000	8,163060
1329,000000	8,144111
1328,000000	8,126056
1327,000000	8,107893
1326,000000	8,089412
1325,000000	8,071308
1324,000000	8,053713
1323,000000	8,035664
1322,000000	8,016888
1321,000000	8,003997
1320,000000	7,981986
1319,000000	7,958374
1318,000000	7,939794
1317,000000	7,921955
1316,000000	7,910931
1315,000000	7,889195
1314,000000	7,866312
1313,000000	7,848263
1312,000000	7,830557
1311,000000	7,813256
1310,000000	7,801818
1309,000000	7,778967
1308,000000	7,755907
1307,000000	7,738250
1306,000000	7,720975
1305,000000	7,704009
1304,000000	7,686768
1303,000000	7,669146
1302,000000	7,651912
1301,000000	7,635206
1300,000000	7,618573
1299,000000	7,602418
1298,000000	7,586039
1297,000000	7,569758
1296,000000	7,553462
1295,000000	7,536765
1294,000000	7,520192
1293,000000	7,504032
1292,000000	7,496637
1291,000000	7,484856
1290,000000	7,463307
1289,000000	7,445020
1288,000000	7,429465
1287,000000	7,414410
1286,000000	7,399087
1285,000000	7,383893
1284,000000	7,377679
1283,000000	7,366670
1282,000000	7,351580
1281,000000	7,336783
1280,000000	7,322728
1279,000000	7,308406
1278,000000	7,294941
1277,000000	7,281001
1276,000000	7,266822
1275,000000	7,252999
1274,000000	7,238556
1273,000000	7,223829
1272,000000	7,210428
1271,000000	7,188805
1270,000000	7,173186
1269,000000	7,160073
1268,000000	7,146801
1267,000000	7,133000
1266,000000	7,119942
1265,000000	7,113685
1264,000000	7,094325
1263,000000	7,079861
1262,000000	7,067605
1261,000000	7,055803
1260,000000	7,043896
1259,000000	7,032585
1258,000000	7,021156
1257,000000	7,010291
1256,000000	6,999631
1255,000000	6,989394
1254,000000	6,979418
1253,000000	6,968349
1252,000000	6,957450
1251,000000	6,947848
1250,000000	6,938093
1249,000000	6,927996
1248,000000	6,918191
1247,000000	6,908302
1246,000000	6,898520
1245,000000	6,889347
1244,000000	6,879717
1243,000000	6,870434
1242,000000	6,861843
1241,000000	6,853442
1240,000000	6,851273
1239,000000	6,843756
1238,000000	6,835301
1237,000000	6,816866
1236,000000	6,806892
1235,000000	6,798679
1234,000000	6,790814
1233,000000	6,789789
1232,000000	6,774122
1231,000000	6,766854
1230,000000	6,759534
1229,000000	6,758510
1228,000000	6,743789
1227,000000	6,736352
1226,000000	6,729440
1225,000000	6,719798
1224,000000	6,713192
1223,000000	6,707575
1222,000000	6,702108
1221,000000	6,701742
1220,000000	6,696326
1219,000000	6,683824
1218,000000	6,678169
1217,000000	6,672769
1216,000000	6,669216
1215,000000	6,665358
1214,000000	6,661449
1213,000000	6,657949
1212,000000	6,653352
1211,000000	6,649072
1210,000000	6,644609
1209,000000	6,639309
1208,000000	6,635149
1207,000000	6,631407
1206,000000	6,627836
1205,000000	6,624106
1204,000000	6,620956
1203,000000	6,618257
1202,000000	6,614384
1201,000000	6,610563
1200,000000	6,607681
1199,000000	6,604334
1198,000000	6,601139
1197,000000	6,598579
1196,000000	6,594330
1195,000000	6,590844
1194,000000	6,587283
1193,000000	6,584607
1192,000000	6,580277
1191,000000	6,576959
1190,000000	6,570797
1189,000000	6,569035
1188,000000	6,566973
1187,000000	6,564082
1186,000000	6,561777
1185,000000	6,559280
1184,000000	6,557051
1183,000000	6,555601
1182,000000	6,554472
1181,000000	6,552635
1180,000000	6,550927
1179,000000	6,549122
1178,000000	6,548078
1177,000000	6,546970
1176,000000	6,546053
1175,000000	6,544085
1174,000000	6,543544
1173,000000	6,542568
1172,000000	6,541599
1171,000000	6,541087
1170,000000	6,539559
1169,000000	6,538594
1168,000000	6,536916
1167,000000	6,536640
1166,000000	6,535658
1165,000000	6,534521
1164,000000	6,533249
1163,000000	6,532313
1162,000000	6,531437
1161,000000	6,530995
1160,000000	6,530327
1159,000000	6,530192
1158,000000	6,529632
1157,000000	6,529504
1156,000000	6,528312
1155,000000	6,528274
1154,000000	6,527575
1153,000000	6,527362
1152,000000	6,526798
1151,000000	6,526753
1150,000000	6,526311
1149,000000	6,526348
1148,000000	6,526240
1147,000000	6,526415
1146,000000	6,526284
1145,000000	6,526511
1144,000000	6,526737
1143,000000	6,526531
1142,000000	6,526061
1141,000000	6,526013
1140,000000	6,525614
1139,000000	6,526313
1138,000000	6,527284
1137,000000	6,528529
1136,000000	6,528716
1135,000000	6,529397
1134,000000	6,529766
1133,000000	6,530348
1132,000000	6,531586
1131,000000	6,532761
1130,000000	6,533697
1129,000000	6,534570
1128,000000	6,535349
1127,000000	6,536075
1126,000000	6,536515
1125,000000	6,536586
1124,000000	6,537626
1123,000000	6,539458
1122,000000	6,541656
1121,000000	6,544813
1120,000000	6,547226
1119,000000	6,548904
1118,000000	6,550831
1117,000000	6,552875
1116,000000	6,554750
1115,000000	6,557481
1114,000000	6,560169
1113,000000	6,562194
1112,000000	6,563775
1111,000000	6,565771
1110,000000	6,568829
1109,000000	6,572571
1108,000000	6,575765
1107,000000	6,579028
1106,000000	6,582613
1105,000000	6,585812
1104,000000	6,588982
1103,000000	6,593252
1102,000000	6,597813
1101,000000	6,602579
1100,000000	6,607721
1099,000000	6,613256
1098,000000	6,617910
1097,000000	6,622805
1096,000000	6,627938
1095,000000	6,632933
1094,000000	6,638569
1093,000000	6,643442
1092,000000	6,648239
1091,000000	6,653845
1090,000000	6,659458
1089,000000	6,665533
1088,000000	6,672303
1087,000000	6,679241
1086,000000	6,686371
1085,000000	6,694404
1084,000000	6,702615
1083,000000	6,710711
1082,000000	6,719395
1081,000000	6,728245
1080,000000	6,735923
1079,000000	6,743731
1078,000000	6,753111
1077,000000	6,763094
1076,000000	6,772389
1075,000000	6,781986
1074,000000	6,792197
1073,000000	6,802498
1072,000000	6,812557
1071,000000	6,822708
1070,000000	6,833590
1069,000000	6,844791
1068,000000	6,855723
1067,000000	6,867707
1066,000000	6,880838
1065,000000	6,893528
1064,000000	6,905974
1063,000000	6,918708
1062,000000	6,931447
1061,000000	6,943441
1060,000000	6,956072
1059,000000	6,969400
1058,000000	6,983600
1057,000000	6,997543
1056,000000	7,011370
1055,000000	7,025675
1054,000000	7,040507
1053,000000	7,055786
1052,000000	7,070567
1051,000000	7,085399
1050,000000	7,101290
1049,000000	7,117110
1048,000000	7,132242
1047,000000	7,147541
1046,000000	7,164219
1045,000000	7,180591
1044,000000	7,196956
1043,000000	7,213434
1042,000000	7,229614
1041,000000	7,245326
1040,000000	7,260790
1039,000000	7,276613
1038,000000	7,292798
1037,000000	7,310025
1036,000000	7,327927
1035,000000	7,345716
1034,000000	7,363936
1033,000000	7,382401
1032,000000	7,400372
1031,000000	7,418509
1030,000000	7,436450
1029,000000	7,454213
1028,000000	7,471638
1027,000000	7,489357
1026,000000	7,508046
1025,000000	7,526321
1024,000000	7,545271
1023,000000	7,563854
1022,000000	7,582530
1021,000000	7,601277
1020,000000	7,619808
1019,000000	7,639629
1018,000000	7,659114
1017,000000	7,677768
1016,000000	7,695174
1015,000000	7,712659
1014,000000	7,731715
1013,000000	7,750491
1012,000000	7,769321
1011,000000	7,787724
1010,000000	7,805953
1009,000000	7,825269
1008,000000	7,843278
1007,000000	7,860404
1006,000000	7,878542
1005,000000	7,896639
1004,000000	7,913520
1003,000000	7,930708
1002,000000	7,948760
1001,000000	7,966716
1000,000000	7,985194
999,000000	8,002785
998,000000	8,020555
997,000000	8,038846
996,000000	8,056943
995,000000	8,074538
994,000000	8,091523
993,000000	8,109367
992,000000	8,126239
991,000000	8,143853
990,000000	8,162825
989,000000	8,180865
988,000000	8,198508
987,000000	8,216104
986,000000	8,233964
985,000000	8,251374
984,000000	8,269453
983,000000	8,287784
982,000000	8,306273
981,000000	8,324516
980,000000	8,342451
979,000000	8,359701
978,000000	8,376537
977,000000	8,393619
976,000000	8,411829
975,000000	8,430516
974,000000	8,448997
973,000000	8,467510
972,000000	8,486969
971,000000	8,506038
970,000000	8,525751
969,000000	8,545706
968,000000	8,565004
967,000000	8,584218
966,000000	8,603923
965,000000	8,623597
964,000000	8,642901
963,000000	8,662834
962,000000	8,683838
961,000000	8,704758
960,000000	8,725105
959,000000	8,746178
958,000000	8,767897
957,000000	8,789920
956,000000	8,811593
955,000000	8,835327
954,000000	8,860058
953,000000	8,883736
952,000000	8,906777
951,000000	8,929014
950,000000	8,953111
949,000000	8,978050
948,000000	9,001752
947,000000	9,028671
946,000000	9,054064
945,000000	9,079951
944,000000	9,105499
943,000000	9,131991
942,000000	9,158941
941,000000	9,186761
940,000000	9,214531
939,000000	9,243176
938,000000	9,269971
937,000000	9,298856
936,000000	9,326815
935,000000	9,356659
934,000000	9,384828
933,000000	9,415807
932,000000	9,444999
931,000000	9,474877
930,000000	9,505970
929,000000	9,536797
928,000000	9,566349
927,000000	9,595923
926,000000	9,628237
925,000000	9,660459
924,000000	9,690599
923,000000	9,720693
922,000000	9,750359
921,000000	9,781479
920,000000	9,815256
919,000000	9,845697
918,000000	9,877918
917,000000	9,910237
916,000000	9,940794
915,000000	9,971721
914,000000	10,002967
913,000000	10,035201
912,000000	10,068108
911,000000	10,098605
910,000000	10,130239
909,000000	10,159379
908,000000	10,194280
907,000000	10,225869
906,000000	10,255439
905,000000	10,285804
904,000000	10,317908
903,000000	10,349701
902,000000	10,379246
901,000000	10,406622
900,000000	10,438554
899,000000	10,464130
898,000000	10,497524
897,000000	10,526531
896,000000	10,557015
895,000000	10,587107
894,000000	10,613722
893,000000	10,641961
892,000000	10,667947
891,000000	10,695223
890,000000	10,726863
889,000000	10,753343
888,000000	10,779126
887,000000	10,805067
886,000000	10,834621
885,000000	10,860906
884,000000	10,886718
883,000000	10,909437
882,000000	10,935959
881,000000	10,963708
880,000000	10,988775
879,000000	11,013485
878,000000	11,043231
877,000000	11,067564
876,000000	11,092313
875,000000	11,117267
874,000000	11,142979
873,000000	11,174266
872,000000	11,195685
871,000000	11,218768
870,000000	11,244724
869,000000	11,274799
868,000000	11,300487
867,000000	11,329560
866,000000	11,354239
865,000000	11,381036
864,000000	11,409577
863,000000	11,437784
862,000000	11,465609
861,000000	11,491312
860,000000	12,424833
859,000000	12,436710
858,000000	12,460319
857,000000	12,496559
856,000000	12,518958
855,000000	12,542612
854,000000	12,564415
853,000000	12,589685
852,000000	12,622083
851,000000	12,666993
850,000000	12,671845
849,000000	12,709066
848,000000	12,748845
847,000000	12,770963
846,000000	12,804829
845,000000	12,833742
844,000000	12,863072
843,000000	12,901048
842,000000	12,910453
841,000000	12,943257
840,000000	12,974489
839,000000	13,005499
838,000000	13,052451
837,000000	13,068797
836,000000	13,104789
835,000000	13,127123
834,000000	13,155018
833,000000	13,192126
832,000000	13,215683
831,000000	13,247108
830,000000	13,284049
829,000000	13,309496
828,000000	13,340357
827,000000	13,373154
826,000000	13,400800
825,000000	13,431132
824,000000	13,464334
823,000000	13,502960
822,000000	13,522714
821,000000	13,552911
820,000000	13,590965
819,000000	13,621940
818,000000	13,650804
817,000000	13,675541
816,000000	13,710781
815,000000	13,736905
814,000000	13,763288
813,000000	13,796529
812,000000	13,822296
811,000000	13,848973
810,000000	13,873579
809,000000	13,897980
808,000000	13,920143
807,000000	13,948218
806,000000	13,969195
805,000000	13,987353
804,000000	14,013290
803,000000	14,038811
802,000000	14,058226
801,000000	14,069506
800,000000	14,093674
799,000000	14,108667
798,000000	14,131763
797,000000	14,150717
796,000000	14,171499
795,000000	14,188577
794,000000	14,202402
793,000000	14,216773
792,000000	14,238555
791,000000	14,253068
790,000000	14,269606
789,000000	14,282875
788,000000	14,296888
787,000000	14,313096
786,000000	14,335627
785,000000	14,361491
784,000000	14,373064
783,000000	14,388526
782,000000	14,410071
781,000000	14,431438
780,000000	14,442408
779,000000	14,460443
778,000000	14,487652
777,000000	14,509643
776,000000	14,529649
775,000000	14,557957
774,000000	14,578775
773,000000	14,602636
772,000000	14,627488
771,000000	14,649839
770,000000	14,670982
769,000000	14,701384
768,000000	14,722643
767,000000	14,745724
766,000000	14,770741
765,000000	14,799162
764,000000	14,830256
763,000000	14,856519
762,000000	14,883854
761,000000	14,913400
760,000000	14,935125
759,000000	14,963369
758,000000	14,991071
757,000000	15,019020
756,000000	15,043506
755,000000	15,064203
754,000000	15,089351
753,000000	15,117028
752,000000	15,139408
751,000000	15,162308
750,000000	15,186205
749,000000	15,203696
748,000000	15,220091
747,000000	15,242644
746,000000	15,266363
745,000000	15,281824
744,000000	15,295412
743,000000	15,305323
742,000000	15,318190
741,000000	15,333784
740,000000	15,340498
739,000000	15,344909
738,000000	15,350734
737,000000	15,360965
736,000000	15,370123
735,000000	15,376224
734,000000	15,379410
733,000000	15,385728
732,000000	15,386860
731,000000	15,385729
730,000000	15,387354
729,000000	15,389169
728,000000	15,390661
727,000000	15,393015
726,000000	15,395011
725,000000	15,397404
724,000000	15,403880
723,000000	15,399682
722,000000	15,395834
721,000000	15,398730
720,000000	15,400844
719,000000	15,401332
718,000000	15,405276
717,000000	15,409801
716,000000	15,409594
715,000000	15,411478
714,000000	15,417220
713,000000	15,422948
712,000000	15,431690
711,000000	15,435185
710,000000	15,438795
709,000000	15,449453
708,000000	15,456796
707,000000	15,464271
706,000000	15,473292
705,000000	15,483955
704,000000	15,493982
703,000000	15,501437
702,000000	15,510044
701,000000	15,519081
700,000000	15,528623
699,000000	15,539289
698,000000	15,545954
697,000000	15,551889
696,000000	15,559213
695,000000	15,564269
694,000000	15,566244
693,000000	15,569971
692,000000	15,573751
691,000000	15,575592
690,000000	15,571924
689,000000	15,571971
688,000000	15,569398
687,000000	15,563749
686,000000	15,553730
685,000000	15,543027
684,000000	15,531184
683,000000	15,515113
682,000000	15,501810
681,000000	15,488134
680,000000	15,468235
679,000000	15,452605
678,000000	15,430130
677,000000	15,407724
676,000000	15,388039
675,000000	15,367389
674,000000	15,343110
673,000000	15,315801
672,000000	15,291496
671,000000	15,271091
670,000000	15,243273
669,000000	15,217241
668,000000	15,193762
667,000000	15,174606
666,000000	15,156178
665,000000	15,131339
664,000000	15,111096
663,000000	15,091687
662,000000	15,075087
661,000000	15,059149
660,000000	15,046809
659,000000	15,027163
658,000000	15,010864
657,000000	15,000264
656,000000	14,989008
655,000000	14,972424
654,000000	14,965397
653,000000	14,949029
652,000000	14,934907
651,000000	14,923938
650,000000	14,915602
649,000000	14,903534
648,000000	14,890679
647,000000	14,880497
646,000000	14,863718
645,000000	14,844269
644,000000	14,824205
643,000000	14,809264
642,000000	14,790180
641,000000	14,763521
640,000000	14,739572
639,000000	14,714519
638,000000	14,685854
637,000000	14,654587
636,000000	14,625001
635,000000	14,590211
634,000000	14,551167
633,000000	14,510044
632,000000	14,472474
631,000000	14,427764
630,000000	14,387502
629,000000	14,341914
628,000000	14,297707
627,000000	14,255923
626,000000	14,207035
625,000000	14,165430
624,000000	14,117836
623,000000	14,076089
622,000000	14,032697
621,000000	13,988643
620,000000	13,944956
619,000000	13,906101
618,000000	13,868406
617,000000	13,830472
616,000000	13,793898
615,000000	13,761723
614,000000	13,729429
613,000000	13,700591
612,000000	13,666730
611,000000	13,638250
610,000000	13,608401
609,000000	13,584793
608,000000	13,561010
607,000000	13,536494
606,000000	13,515058
605,000000	13,485576
604,000000	13,460519
603,000000	13,432299
602,000000	13,407450
601,000000	13,379687
600,000000	13,342966
599,000000	13,310720
598,000000	13,277573
597,000000	13,244757
596,000000	13,202607
595,000000	13,164208
594,000000	13,127676
593,000000	13,082874
592,000000	13,034633
591,000000	12,988132
590,000000	12,942935
589,000000	12,897173
588,000000	12,850413
587,000000	12,801912
586,000000	12,757056
585,000000	12,712407
584,000000	12,662742
583,000000	12,614734
582,000000	12,576729
581,000000	12,533495
580,000000	12,495533
579,000000	12,459170
578,000000	12,428776
577,000000	12,399283
576,000000	12,374511
575,000000	12,342814
574,000000	12,316751
573,000000	12,297843
572,000000	12,274315
571,000000	12,255812
570,000000	12,239120
569,000000	12,223156
568,000000	12,204595
567,000000	12,187637
566,000000	12,172046
565,000000	12,152261
564,000000	12,136033
563,000000	12,117631
562,000000	12,089071
561,000000	12,066789
560,000000	12,044799
559,000000	12,021094
558,000000	11,998401
557,000000	11,972965
556,000000	11,947092
555,000000	11,919448
554,000000	11,894969
553,000000	11,868090
552,000000	11,843563
551,000000	11,819562
550,000000	11,801425
549,000000	11,783152
548,000000	11,763183
547,000000	11,751054
546,000000	11,739974
545,000000	11,734002
544,000000	11,729218
543,000000	11,727217
542,000000	11,730171
541,000000	11,735707
540,000000	11,743827
539,000000	11,756308
538,000000	11,767764
537,000000	11,782423
536,000000	11,794148
535,000000	11,809956
534,000000	11,824989
533,000000	11,841984
532,000000	11,853164
531,000000	11,865532
530,000000	11,874127
529,000000	11,880875
528,000000	11,891272
527,000000	11,900866
526,000000	11,904274
525,000000	11,911102
524,000000	11,916877
523,000000	11,926397
522,000000	11,935115
521,000000	11,947632
520,000000	11,960085
519,000000	11,980147
518,000000	12,005067
517,000000	12,038579
516,000000	12,070703
515,000000	12,112129
514,000000	12,153820
513,000000	12,196651
512,000000	12,250490
511,000000	12,304103
510,000000	12,360452
509,000000	12,415663
508,000000	12,473736
507,000000	12,527132
506,000000	12,582239
505,000000	12,636595
504,000000	12,686061
503,000000	12,726433
502,000000	12,766761
501,000000	12,804094
500,000000	12,840013
499,000000	12,863829
498,000000	12,897969
497,000000	12,930224
496,000000	12,963631
495,000000	12,998845
494,000000	13,035554
493,000000	13,076649
492,000000	13,119491
491,000000	13,166276
490,000000	13,221791
489,000000	13,279991
488,000000	13,341419
487,000000	13,405110
486,000000	13,462502
485,000000	13,523852
484,000000	13,580767
483,000000	13,631396
482,000000	13,673352
481,000000	13,708379
480,000000	13,738131
479,000000	13,766020
478,000000	13,793436
477,000000	13,812137
476,000000	13,827611
475,000000	13,842257
474,000000	13,857703
473,000000	13,875010
472,000000	13,890353
471,000000	13,909057
470,000000	13,931229
469,000000	13,953343
468,000000	13,975717
467,000000	14,002611
466,000000	14,029424
465,000000	14,047589
464,000000	14,059559
463,000000	14,065862
462,000000	14,066693
461,000000	14,057123
460,000000	14,033773
459,000000	13,997834
458,000000	13,954899
457,000000	13,903318
456,000000	13,843477
455,000000	13,785735
454,000000	13,723729
453,000000	13,662607
452,000000	13,603129
451,000000	13,545073
450,000000	13,488588
449,000000	13,439473
448,000000	13,390579
447,000000	13,331143
446,000000	13,268813
445,000000	13,201603
444,000000	13,123094
443,000000	13,035089
442,000000	12,938285
441,000000	12,836630
440,000000	12,727222
439,000000	12,619347
438,000000	12,517062
437,000000	12,412185
436,000000	12,311655
435,000000	12,223350
434,000000	12,142147
433,000000	12,063235
432,000000	11,983367
431,000000	11,902131
430,000000	11,813868
429,000000	11,712841
428,000000	11,593498
427,000000	11,459777
426,000000	11,310600
425,000000	11,149470
424,000000	10,975088
423,000000	10,779726
422,000000	10,563352
421,000000	10,319614
420,000000	10,046469
419,000000	9,743185
418,000000	9,416498
417,000000	9,076609
416,000000	8,737167
415,000000	8,401107
414,000000	8,083271
413,000000	7,790759
412,000000	7,525231
411,000000	7,294571
410,000000	7,097493
409,000000	6,930175
408,000000	6,788510
407,000000	6,670467
406,000000	6,572577
405,000000	6,490291
404,000000	6,422598
403,000000	6,367494
402,000000	6,322136
401,000000	6,280860
400,000000	6,244167
399,000000	6,207757
398,000000	6,173039
397,000000	6,142774
396,000000	6,108651
395,000000	6,070606
394,000000	6,033251
393,000000	5,991077
392,000000	5,951527
391,000000	5,914155
390,000000	5,874909
389,000000	5,835716
388,000000	5,799418
387,000000	5,770328
386,000000	5,744444
385,000000	5,718394
384,000000	5,696044
383,000000	5,680467
382,000000	5,668697
381,000000	5,661433
380,000000	5,650830
379,000000	5,540746
378,000000	5,443239
377,000000	5,410573
376,000000	5,410581
375,000000	5,414055
374,000000	5,403197
373,000000	5,395429
372,000000	5,389129
371,000000	5,381822
370,000000	5,369553
369,000000	5,348207
368,000000	5,318840
367,000000	5,293414
366,000000	5,259923
365,000000	5,225514
364,000000	5,189153
363,000000	5,150205
362,000000	5,103706
361,000000	5,054349
360,000000	5,002396
359,000000	4,933887
358,000000	4,869399
357,000000	4,805644
356,000000	4,734665
355,000000	4,660052
354,000000	4,579675
353,000000	4,504702
352,000000	4,435526
351,000000	4,350621
350,000000	4,280406
349,000000	4,202613
348,000000	4,126214
347,000000	4,058786
346,000000	3,990042
345,000000	3,927203
344,000000	3,867495
343,000000	3,806944
342,000000	3,748741
341,000000	3,701732
340,000000	3,643491
339,000000	3,581508
338,000000	3,534090
337,000000	3,483757
336,000000	3,437491
335,000000	3,396108
334,000000	3,353631
333,000000	3,309691
332,000000	3,252112
331,000000	3,215139
330,000000	3,178543
329,000000	3,135974
328,000000	3,091004
327,000000	3,034503
326,000000	2,991079
325,000000	2,940600
324,000000	2,899462
323,000000	2,848469
322,000000	2,799141
321,000000	2,769455
320,000000	2,733313
319,000000	2,756271
318,000000	2,732800
317,000000	2,699588
316,000000	2,668335
315,000000	2,643154
314,000000	2,618550
313,000000	2,592194
312,000000	2,568779
311,000000	2,547142
310,000000	2,530964
309,000000	2,510824
308,000000	2,498125
307,000000	2,488367
306,000000	2,481248
305,000000	2,478915
304,000000	2,476363
303,000000	2,471870
302,000000	2,463610
301,000000	2,461402
300,000000	2,453276
299,000000	2,442351
298,000000	2,428815
297,000000	2,414418
296,000000	2,393829
295,000000	2,369764
294,000000	2,350369
293,000000	2,324434
292,000000	2,293523
291,000000	2,264453
290,000000	2,225953
289,000000	2,178886
288,000000	2,126193
287,000000	2,059707
286,000000	1,987312
285,000000	1,900392
284,000000	1,805140
283,000000	1,700804
282,000000	1,588498
281,000000	1,468007
280,000000	1,342773
279,000000	1,215531
278,000000	1,083867
277,000000	0,951713
276,000000	0,826207
275,000000	0,709994
274,000000	0,601163
273,000000	0,514771
272,000000	0,442856
271,000000	0,385301
270,000000	0,348109
269,000000	0,325671
268,000000	0,311366
267,000000	0,302564
266,000000	0,294886
265,000000	0,284968
264,000000	0,273843
263,000000	0,267330
262,000000	0,266934
261,000000	0,265307
260,000000	0,264542
259,000000	0,264875
258,000000	0,266675
257,000000	0,264566
256,000000	0,265499
255,000000	0,266793
254,000000	0,264206
253,000000	0,262654
252,000000	0,264103
251,000000	0,263514
250,000000	0,263451
249,000000	0,263785
248,000000	0,264738
247,000000	0,266897
246,000000	0,263234
245,000000	0,262836
244,000000	0,265130
243,000000	0,263297
242,000000	0,265381
241,000000	0,268367
240,000000	0,269697
239,000000	0,269912
238,000000	0,271985
237,000000	0,270975
236,000000	0,273929
235,000000	0,277818
234,000000	0,277986
233,000000	0,278187
232,000000	0,277520
231,000000	0,277942
230,000000	0,276356
229,000000	0,278455
228,000000	0,276375
227,000000	0,276380
226,000000	0,276235
225,000000	0,277253
224,000000	0,275689
223,000000	0,276336
222,000000	0,275640
221,000000	0,277173
220,000000	0,278014
219,000000	0,278288
218,000000	0,278059
217,000000	0,278871
216,000000	0,279721
215,000000	0,279322
214,000000	0,280904
213,000000	0,280886
212,000000	0,282063
211,000000	0,283527
210,000000	0,287366
209,000000	0,289408
208,000000	0,291941
207,000000	0,293146
206,000000	0,295377
205,000000	0,298291
204,000000	0,302072
203,000000	0,304131
202,000000	0,305992
201,000000	0,309167
200,000000	0,311504
