PE UV       SUBTECH     SPECTRUM    ASCII       PEDS        4.00        
   -1
Q1dot.Sample.asc
22/03/23
15:43:14.00
22/03/23
15:43:14.00
Administrator

200,000000
1
Lambda 1050
1050L1808311
PerkinElmer UV WinLab 6.4.0.973 / 2.02.11 Lambda 900 UV/VIS/NIR, May 23 2018 11:23:04

0
0
3350/servo 1800,8/servo 860,8/2
0
0
UV/VIS
1
1
1
CommonBeamDepol,RBeamAtt,SBeamAtt,uv/vis/nir detector, TDS WB InGaAs Detector
0
0
0
0
Program
Program
3350/servo 1800,8/servo 860,8/2
3350/0,2 1800,8/0,2 860,8/0,2
3350/0,2 1800,8/0,2 860,8/0,2
0
3350/1,00 1800,8/1,00
 
 
 
0
 
860,8
319,2
1800,8 860,8
Front
100
on
S:100 R:100
 
0
0
0
 
0
 
 
 
0
 
 
0
0
0
0
0
 
 
 
 
0
0


0
0
#HDR
-1
-1
#GR
nm
%T
1.0
0.0
2000,000000
-1,000000
1801
8
47,778115
0,165912
#DATA
2000,000000	38,336878
1999,000000	38,319091
1998,000000	38,271400
1997,000000	38,286678
1996,000000	38,236503
1995,000000	38,218146
1994,000000	38,173303
1993,000000	38,182560
1992,000000	38,131327
1991,000000	38,137768
1990,000000	38,076898
1989,000000	38,082021
1988,000000	38,038298
1987,000000	38,015851
1986,000000	37,974346
1985,000000	37,971347
1984,000000	37,910258
1983,000000	37,918442
1982,000000	37,875728
1981,000000	37,859370
1980,000000	37,812037
1979,000000	37,802733
1978,000000	37,758763
1977,000000	37,736801
1976,000000	37,700832
1975,000000	37,692845
1974,000000	37,659347
1973,000000	37,644407
1972,000000	37,594349
1971,000000	37,592419
1970,000000	37,543706
1969,000000	37,528689
1968,000000	37,454692
1967,000000	37,444003
1966,000000	37,422626
1965,000000	37,402392
1964,000000	37,348181
1963,000000	37,352097
1962,000000	37,322293
1961,000000	37,310217
1960,000000	37,257644
1959,000000	37,240401
1958,000000	37,189760
1957,000000	37,172534
1956,000000	37,135193
1955,000000	37,126771
1954,000000	37,073177
1953,000000	37,077549
1952,000000	37,029100
1951,000000	36,998341
1950,000000	36,952927
1949,000000	36,946604
1948,000000	36,901900
1947,000000	36,896850
1946,000000	36,852023
1945,000000	36,831397
1944,000000	36,796823
1943,000000	36,770381
1942,000000	36,750555
1941,000000	36,730549
1940,000000	36,675128
1939,000000	36,652501
1938,000000	36,608818
1937,000000	36,584498
1936,000000	36,547901
1935,000000	36,537003
1934,000000	36,494600
1933,000000	36,468922
1932,000000	36,441738
1931,000000	36,421536
1930,000000	36,375375
1929,000000	36,365799
1928,000000	36,345659
1927,000000	36,300366
1926,000000	36,283697
1925,000000	36,260251
1924,000000	36,187759
1923,000000	36,148955
1922,000000	36,102005
1921,000000	36,069788
1920,000000	35,993984
1919,000000	35,967178
1918,000000	35,954327
1917,000000	35,915373
1916,000000	35,897813
1915,000000	35,875397
1914,000000	35,795291
1913,000000	35,759827
1912,000000	35,731669
1911,000000	35,690408
1910,000000	35,653357
1909,000000	35,647659
1908,000000	35,633922
1907,000000	35,605991
1906,000000	35,570828
1905,000000	35,517968
1904,000000	35,457933
1903,000000	35,444781
1902,000000	35,416000
1901,000000	35,396897
1900,000000	35,343328
1899,000000	35,272743
1898,000000	35,191341
1897,000000	35,159769
1896,000000	35,128310
1895,000000	35,095547
1894,000000	35,060785
1893,000000	34,999675
1892,000000	34,932698
1891,000000	34,906555
1890,000000	34,867725
1889,000000	34,836721
1888,000000	34,808539
1887,000000	34,777975
1886,000000	34,718661
1885,000000	34,675007
1884,000000	34,634332
1883,000000	34,606557
1882,000000	34,564342
1881,000000	34,540090
1880,000000	34,481427
1879,000000	34,426997
1878,000000	34,395729
1877,000000	34,356255
1876,000000	34,299144
1875,000000	34,256170
1874,000000	34,210889
1873,000000	34,179613
1872,000000	34,147181
1871,000000	34,087001
1870,000000	34,046087
1869,000000	34,005553
1868,000000	33,938581
1867,000000	33,886194
1866,000000	33,860440
1865,000000	33,831077
1864,000000	33,788058
1863,000000	33,780202
1862,000000	33,758750
1861,000000	33,746826
1860,000000	33,745522
1859,000000	33,704465
1858,000000	33,650199
1857,000000	33,625133
1856,000000	33,610392
1855,000000	33,565252
1854,000000	33,497616
1853,000000	33,435588
1852,000000	33,396599
1851,000000	33,367858
1850,000000	33,342566
1849,000000	33,323022
1848,000000	33,278601
1847,000000	33,191874
1846,000000	33,118817
1845,000000	33,101610
1844,000000	33,105048
1843,000000	33,103507
1842,000000	33,087335
1841,000000	33,011957
1840,000000	32,948098
1839,000000	32,913085
1838,000000	32,893948
1837,000000	32,883554
1836,000000	32,820882
1835,000000	32,746388
1834,000000	32,714887
1833,000000	32,722646
1832,000000	32,719690
1831,000000	32,680514
1830,000000	32,644944
1829,000000	32,591152
1828,000000	32,562722
1827,000000	32,532931
1826,000000	32,480440
1825,000000	32,423409
1824,000000	32,417297
1823,000000	32,416811
1822,000000	32,419979
1821,000000	32,360276
1820,000000	32,287002
1819,000000	32,253260
1818,000000	32,264304
1817,000000	32,260603
1816,000000	32,240871
1815,000000	32,195179
1814,000000	32,161971
1813,000000	32,138169
1812,000000	32,125306
1811,000000	32,082821
1810,000000	32,052622
1809,000000	32,024936
1808,000000	32,014612
1807,000000	31,973533
1806,000000	31,939104
1805,000000	31,898538
1804,000000	31,883692
1803,000000	31,872342
1802,000000	31,861596
1801,000000	31,816874
1800,000000	31,962929
1799,000000	31,930642
1798,000000	31,905308
1797,000000	31,880931
1796,000000	31,851881
1795,000000	31,823446
1794,000000	31,798270
1793,000000	31,771040
1792,000000	31,741661
1791,000000	31,713471
1790,000000	31,692756
1789,000000	31,672684
1788,000000	31,644409
1787,000000	31,621497
1786,000000	31,596677
1785,000000	31,578202
1784,000000	31,556082
1783,000000	31,530288
1782,000000	31,504353
1781,000000	31,482435
1780,000000	31,459389
1779,000000	31,440740
1778,000000	31,421990
1777,000000	31,399735
1776,000000	31,375312
1775,000000	31,351833
1774,000000	31,324936
1773,000000	31,309952
1772,000000	31,291750
1771,000000	31,277612
1770,000000	31,263098
1769,000000	31,246561
1768,000000	31,232136
1767,000000	31,214337
1766,000000	31,192965
1765,000000	31,175509
1764,000000	31,157728
1763,000000	31,136032
1762,000000	31,116582
1761,000000	31,098354
1760,000000	31,078377
1759,000000	31,054324
1758,000000	31,032784
1757,000000	31,017754
1756,000000	30,998293
1755,000000	30,978487
1754,000000	30,959970
1753,000000	30,939916
1752,000000	30,921914
1751,000000	30,908253
1750,000000	30,893502
1749,000000	30,877792
1748,000000	30,859718
1747,000000	30,839642
1746,000000	30,818870
1745,000000	30,807988
1744,000000	30,794375
1743,000000	30,778829
1742,000000	30,764861
1741,000000	30,751453
1740,000000	30,736790
1739,000000	30,719870
1738,000000	30,702115
1737,000000	30,683733
1736,000000	30,668156
1735,000000	30,653672
1734,000000	30,637112
1733,000000	30,622775
1732,000000	30,611595
1731,000000	30,599666
1730,000000	30,583919
1729,000000	30,569677
1728,000000	30,558670
1727,000000	30,547466
1726,000000	30,533091
1725,000000	30,523576
1724,000000	30,511461
1723,000000	30,497826
1722,000000	30,477588
1721,000000	30,453150
1720,000000	30,436626
1719,000000	30,427682
1718,000000	30,415076
1717,000000	30,401514
1716,000000	30,391529
1715,000000	30,382165
1714,000000	30,371356
1713,000000	30,356977
1712,000000	30,341893
1711,000000	30,329990
1710,000000	30,317623
1709,000000	30,302930
1708,000000	30,287254
1707,000000	30,274507
1706,000000	30,256931
1705,000000	30,236348
1704,000000	30,220079
1703,000000	30,206049
1702,000000	30,193558
1701,000000	30,180731
1700,000000	30,167925
1699,000000	30,158959
1698,000000	30,148677
1697,000000	30,154566
1696,000000	30,168208
1695,000000	30,160553
1694,000000	30,140848
1693,000000	30,108866
1692,000000	30,072868
1691,000000	30,054364
1690,000000	30,058306
1689,000000	30,059731
1688,000000	30,045612
1687,000000	30,018491
1686,000000	29,991223
1685,000000	29,996804
1684,000000	30,007829
1683,000000	30,006767
1682,000000	29,989787
1681,000000	29,962209
1680,000000	29,942880
1679,000000	29,936825
1678,000000	29,923047
1677,000000	29,907363
1676,000000	29,891969
1675,000000	29,876900
1674,000000	29,863337
1673,000000	29,850089
1672,000000	29,837964
1671,000000	29,823781
1670,000000	29,809021
1669,000000	29,796106
1668,000000	29,781259
1667,000000	29,767526
1666,000000	29,757104
1665,000000	29,745513
1664,000000	29,732819
1663,000000	29,716887
1662,000000	29,696752
1661,000000	29,678263
1660,000000	29,661776
1659,000000	29,646537
1658,000000	29,630160
1657,000000	29,614281
1656,000000	29,598753
1655,000000	29,579674
1654,000000	29,562581
1653,000000	29,547631
1652,000000	29,530185
1651,000000	29,509423
1650,000000	29,487817
1649,000000	29,467489
1648,000000	29,453919
1647,000000	29,437910
1646,000000	29,411515
1645,000000	29,382342
1644,000000	29,357062
1643,000000	29,334693
1642,000000	29,312441
1641,000000	29,291186
1640,000000	29,271370
1639,000000	29,247926
1638,000000	29,221319
1637,000000	29,199258
1636,000000	29,176183
1635,000000	29,150641
1634,000000	29,127225
1633,000000	29,103051
1632,000000	29,079960
1631,000000	29,057135
1630,000000	29,034918
1629,000000	29,011037
1628,000000	28,983865
1627,000000	28,955661
1626,000000	28,931116
1625,000000	28,908733
1624,000000	28,886920
1623,000000	28,864671
1622,000000	28,839720
1621,000000	28,810511
1620,000000	28,782877
1619,000000	28,762902
1618,000000	28,738817
1617,000000	28,709969
1616,000000	28,684639
1615,000000	28,658418
1614,000000	28,630013
1613,000000	28,601465
1612,000000	28,572756
1611,000000	28,546102
1610,000000	28,520795
1609,000000	28,493883
1608,000000	28,465216
1607,000000	28,438112
1606,000000	28,410001
1605,000000	28,383262
1604,000000	28,358154
1603,000000	28,331670
1602,000000	28,305190
1601,000000	28,279989
1600,000000	28,254009
1599,000000	28,225977
1598,000000	28,196827
1597,000000	28,169381
1596,000000	28,141743
1595,000000	28,115614
1594,000000	28,087236
1593,000000	28,057388
1592,000000	28,028358
1591,000000	28,001059
1590,000000	27,974187
1589,000000	27,947384
1588,000000	27,919453
1587,000000	27,889400
1586,000000	27,862278
1585,000000	27,833574
1584,000000	27,804545
1583,000000	27,770939
1582,000000	27,737103
1581,000000	27,710603
1580,000000	27,685272
1579,000000	27,656325
1578,000000	27,630915
1577,000000	27,605467
1576,000000	27,582894
1575,000000	27,558024
1574,000000	27,528114
1573,000000	27,498377
1572,000000	27,468834
1571,000000	27,439378
1570,000000	27,410741
1569,000000	27,382200
1568,000000	27,354153
1567,000000	27,327779
1566,000000	27,299401
1565,000000	27,270790
1564,000000	27,243124
1563,000000	27,216630
1562,000000	27,187637
1561,000000	27,163361
1560,000000	27,139996
1559,000000	27,114462
1558,000000	27,086382
1557,000000	27,056035
1556,000000	27,028871
1555,000000	27,006037
1554,000000	26,980692
1553,000000	26,953486
1552,000000	26,930731
1551,000000	26,907577
1550,000000	26,884024
1549,000000	26,857694
1548,000000	26,833539
1547,000000	26,810760
1546,000000	26,788007
1545,000000	26,766223
1544,000000	26,745375
1543,000000	26,723926
1542,000000	26,699441
1541,000000	26,677265
1540,000000	26,662240
1539,000000	26,643500
1538,000000	26,624340
1537,000000	26,605219
1536,000000	26,587309
1535,000000	26,565396
1534,000000	26,546911
1533,000000	26,528653
1532,000000	26,512148
1531,000000	26,495424
1530,000000	26,480321
1529,000000	26,462934
1528,000000	26,449224
1527,000000	26,430474
1526,000000	26,421541
1525,000000	26,410298
1524,000000	26,395664
1523,000000	26,382676
1522,000000	26,367069
1521,000000	26,354677
1520,000000	26,341677
1519,000000	26,329434
1518,000000	26,315005
1517,000000	26,300996
1516,000000	26,291561
1515,000000	26,282142
1514,000000	26,272708
1513,000000	26,262366
1512,000000	26,254753
1511,000000	26,243414
1510,000000	26,235559
1509,000000	26,225081
1508,000000	26,218170
1507,000000	26,207096
1506,000000	26,198752
1505,000000	26,188782
1504,000000	26,182355
1503,000000	26,170694
1502,000000	26,164611
1501,000000	26,157626
1500,000000	26,152737
1499,000000	26,148038
1498,000000	26,143150
1497,000000	26,136010
1496,000000	26,134301
1495,000000	26,126589
1494,000000	26,122879
1493,000000	26,112750
1492,000000	26,104580
1491,000000	26,101082
1490,000000	26,095766
1489,000000	26,090588
1488,000000	26,088380
1487,000000	26,086367
1486,000000	26,084952
1485,000000	26,080503
1484,000000	26,071186
1483,000000	26,076603
1482,000000	26,075947
1481,000000	26,077402
1480,000000	26,073792
1479,000000	26,070628
1478,000000	26,069785
1477,000000	26,070552
1476,000000	26,070664
1475,000000	26,068478
1474,000000	26,068815
1473,000000	26,070697
1472,000000	26,072933
1471,000000	26,073960
1470,000000	26,080990
1469,000000	26,085045
1468,000000	26,086882
1467,000000	26,089411
1466,000000	26,093212
1465,000000	26,097711
1464,000000	26,114857
1463,000000	26,140975
1462,000000	26,132491
1461,000000	26,114656
1460,000000	26,113199
1459,000000	26,114036
1458,000000	26,114867
1457,000000	26,119700
1456,000000	26,128372
1455,000000	26,132793
1454,000000	26,136040
1453,000000	26,138692
1452,000000	26,143013
1451,000000	26,143837
1450,000000	26,148441
1449,000000	26,155129
1448,000000	26,157432
1447,000000	26,157446
1446,000000	26,162265
1445,000000	26,169977
1444,000000	26,185707
1443,000000	26,202320
1442,000000	26,203617
1441,000000	26,193393
1440,000000	26,177793
1439,000000	26,179212
1438,000000	26,180189
1437,000000	26,182999
1436,000000	26,188001
1435,000000	26,192305
1434,000000	26,196288
1433,000000	26,200537
1432,000000	26,203388
1431,000000	26,204843
1430,000000	26,206704
1429,000000	26,207301
1428,000000	26,209014
1427,000000	26,209866
1426,000000	26,211527
1425,000000	26,213270
1424,000000	26,214752
1423,000000	26,212564
1422,000000	26,212193
1421,000000	26,219052
1420,000000	26,223318
1419,000000	26,229468
1418,000000	26,233525
1417,000000	26,236319
1416,000000	26,233736
1415,000000	26,233366
1414,000000	26,234748
1413,000000	26,235868
1412,000000	26,237845
1411,000000	26,240233
1410,000000	26,241283
1409,000000	26,240915
1408,000000	26,243596
1407,000000	26,246059
1406,000000	26,246446
1405,000000	26,246480
1404,000000	26,244514
1403,000000	26,244885
1402,000000	26,246682
1401,000000	26,245356
1400,000000	26,243578
1399,000000	26,243082
1398,000000	26,241851
1397,000000	26,237364
1396,000000	26,231501
1395,000000	26,227579
1394,000000	26,224525
1393,000000	26,219573
1392,000000	26,216884
1391,000000	26,214114
1390,000000	26,209553
1389,000000	26,205877
1388,000000	26,202984
1387,000000	26,201138
1386,000000	26,196775
1385,000000	26,191194
1384,000000	26,186815
1383,000000	26,182742
1382,000000	26,180930
1381,000000	26,179618
1380,000000	26,175287
1379,000000	26,168630
1378,000000	26,162181
1377,000000	26,152892
1376,000000	26,142002
1375,000000	26,129995
1374,000000	26,115564
1373,000000	26,101550
1372,000000	26,093219
1371,000000	26,091323
1370,000000	26,087494
1369,000000	26,084039
1368,000000	26,083758
1367,000000	26,081746
1366,000000	26,077583
1365,000000	26,071349
1364,000000	26,065138
1363,000000	26,059907
1362,000000	26,056349
1361,000000	26,053219
1360,000000	26,051702
1359,000000	26,050387
1358,000000	26,048887
1357,000000	26,048444
1356,000000	26,047097
1355,000000	26,044933
1354,000000	26,045457
1353,000000	26,045393
1352,000000	26,040200
1351,000000	26,035204
1350,000000	26,031024
1349,000000	26,028882
1348,000000	26,027318
1347,000000	26,018150
1346,000000	25,997877
1345,000000	25,956183
1344,000000	25,912054
1343,000000	25,887126
1342,000000	25,877381
1341,000000	25,873643
1340,000000	25,872749
1339,000000	25,899064
1338,000000	25,887078
1337,000000	25,858849
1336,000000	25,885809
1335,000000	25,880494
1334,000000	25,857942
1333,000000	25,857318
1332,000000	25,857425
1331,000000	25,857871
1330,000000	25,857148
1329,000000	25,856686
1328,000000	25,858841
1327,000000	25,863325
1326,000000	25,868311
1325,000000	25,874489
1324,000000	25,881878
1323,000000	25,888312
1322,000000	25,894095
1321,000000	25,929592
1320,000000	25,931687
1319,000000	25,921836
1318,000000	25,931518
1317,000000	25,974274
1316,000000	26,005918
1315,000000	25,990334
1314,000000	25,986593
1313,000000	26,001553
1312,000000	26,016881
1311,000000	26,063155
1310,000000	26,096428
1309,000000	26,087038
1308,000000	26,086556
1307,000000	26,102457
1306,000000	26,119965
1305,000000	26,140372
1304,000000	26,162817
1303,000000	26,183930
1302,000000	26,204701
1301,000000	26,225667
1300,000000	26,246670
1299,000000	26,268115
1298,000000	26,291333
1297,000000	26,315606
1296,000000	26,338299
1295,000000	26,361668
1294,000000	26,384186
1293,000000	26,410366
1292,000000	26,467336
1291,000000	26,508013
1290,000000	26,498545
1289,000000	26,509343
1288,000000	26,536732
1287,000000	26,561827
1286,000000	26,585327
1285,000000	26,608426
1284,000000	26,664706
1283,000000	26,706368
1282,000000	26,736322
1281,000000	26,764886
1280,000000	26,795298
1279,000000	26,825375
1278,000000	26,856746
1277,000000	26,887172
1276,000000	26,917730
1275,000000	26,950320
1274,000000	26,980582
1273,000000	27,012292
1272,000000	27,044290
1271,000000	27,046738
1270,000000	27,077032
1269,000000	27,112758
1268,000000	27,144181
1267,000000	27,176013
1266,000000	27,210762
1265,000000	27,288295
1264,000000	27,301871
1263,000000	27,330427
1262,000000	27,368227
1261,000000	27,409263
1260,000000	27,447204
1259,000000	27,485232
1258,000000	27,520528
1257,000000	27,555322
1256,000000	27,593067
1255,000000	27,676356
1254,000000	27,728081
1253,000000	27,766916
1252,000000	27,802453
1251,000000	27,839456
1250,000000	27,875277
1249,000000	27,909402
1248,000000	27,943229
1247,000000	27,975233
1246,000000	28,009832
1245,000000	28,044847
1244,000000	28,075274
1243,000000	28,106097
1242,000000	28,137662
1241,000000	28,171630
1240,000000	28,204502
1239,000000	28,232903
1238,000000	28,258263
1237,000000	28,251541
1236,000000	28,279369
1235,000000	28,309766
1234,000000	28,336622
1233,000000	28,417913
1232,000000	28,416909
1231,000000	28,441746
1230,000000	28,471512
1229,000000	28,551476
1228,000000	28,545100
1227,000000	28,568301
1226,000000	28,644507
1225,000000	28,644801
1224,000000	28,670894
1223,000000	28,703941
1222,000000	28,734396
1221,000000	28,807550
1220,000000	28,837393
1219,000000	28,832243
1218,000000	28,858554
1217,000000	28,886130
1216,000000	28,914569
1215,000000	28,943150
1214,000000	28,972061
1213,000000	28,998186
1212,000000	29,022760
1211,000000	29,044962
1210,000000	29,063820
1209,000000	29,079926
1208,000000	29,100658
1207,000000	29,122601
1206,000000	29,142845
1205,000000	29,165109
1204,000000	29,187784
1203,000000	29,206447
1202,000000	29,224480
1201,000000	29,242418
1200,000000	29,262900
1199,000000	29,281467
1198,000000	29,299555
1197,000000	29,318376
1196,000000	29,333273
1195,000000	29,349489
1194,000000	29,366238
1193,000000	29,386641
1192,000000	29,404604
1191,000000	29,420546
1190,000000	29,473909
1189,000000	29,493169
1188,000000	29,514945
1187,000000	29,536870
1186,000000	29,561601
1185,000000	29,585415
1184,000000	29,611134
1183,000000	29,636380
1182,000000	29,662504
1181,000000	29,688334
1180,000000	29,714262
1179,000000	29,736686
1178,000000	29,761745
1177,000000	29,792633
1176,000000	29,822384
1175,000000	29,850434
1174,000000	29,883102
1173,000000	29,917039
1172,000000	29,948358
1171,000000	29,974609
1170,000000	30,004056
1169,000000	30,037456
1168,000000	30,068728
1167,000000	30,104096
1166,000000	30,142111
1165,000000	30,174236
1164,000000	30,208563
1163,000000	30,247025
1162,000000	30,283334
1161,000000	30,323371
1160,000000	30,364102
1159,000000	30,408787
1158,000000	30,449377
1157,000000	30,492141
1156,000000	30,533751
1155,000000	30,580170
1154,000000	30,626084
1153,000000	30,674068
1152,000000	30,725111
1151,000000	30,777386
1150,000000	30,828529
1149,000000	30,877239
1148,000000	30,925429
1147,000000	30,976547
1146,000000	31,032040
1145,000000	31,087902
1144,000000	31,146042
1143,000000	31,203978
1142,000000	31,266239
1141,000000	31,328447
1140,000000	31,386384
1139,000000	31,446487
1138,000000	31,509132
1137,000000	31,573598
1136,000000	31,639997
1135,000000	31,703789
1134,000000	31,766783
1133,000000	31,833365
1132,000000	31,898633
1131,000000	31,969192
1130,000000	32,038314
1129,000000	32,104244
1128,000000	32,170061
1127,000000	32,241716
1126,000000	32,310788
1125,000000	32,375915
1124,000000	32,444343
1123,000000	32,517151
1122,000000	32,587715
1121,000000	32,659695
1120,000000	32,729785
1119,000000	32,799527
1118,000000	32,868538
1117,000000	32,937206
1116,000000	33,006999
1115,000000	33,075666
1114,000000	33,144806
1113,000000	33,212371
1112,000000	33,281207
1111,000000	33,349981
1110,000000	33,418133
1109,000000	33,487556
1108,000000	33,557470
1107,000000	33,625924
1106,000000	33,692232
1105,000000	33,756475
1104,000000	33,818663
1103,000000	33,879689
1102,000000	33,944077
1101,000000	34,008081
1100,000000	34,069632
1099,000000	34,131909
1098,000000	34,190626
1097,000000	34,247838
1096,000000	34,304777
1095,000000	34,362180
1094,000000	34,418731
1093,000000	34,473382
1092,000000	34,525184
1091,000000	34,577602
1090,000000	34,630268
1089,000000	34,684366
1088,000000	34,736152
1087,000000	34,784188
1086,000000	34,831991
1085,000000	34,884079
1084,000000	34,931287
1083,000000	34,978034
1082,000000	35,025691
1081,000000	35,070857
1080,000000	35,111718
1079,000000	35,149527
1078,000000	35,190755
1077,000000	35,236789
1076,000000	35,281125
1075,000000	35,325595
1074,000000	35,369536
1073,000000	35,410128
1072,000000	35,447943
1071,000000	35,487348
1070,000000	35,527716
1069,000000	35,566532
1068,000000	35,604252
1067,000000	35,643861
1066,000000	35,686051
1065,000000	35,728487
1064,000000	35,770459
1063,000000	35,813304
1062,000000	35,854766
1061,000000	35,890874
1060,000000	35,926802
1059,000000	35,969053
1058,000000	36,014598
1057,000000	36,057387
1056,000000	36,097868
1055,000000	36,139704
1054,000000	36,184392
1053,000000	36,228667
1052,000000	36,269287
1051,000000	36,314534
1050,000000	36,369365
1049,000000	36,423613
1048,000000	36,474333
1047,000000	36,526312
1046,000000	36,579420
1045,000000	36,630268
1044,000000	36,684342
1043,000000	36,739844
1042,000000	36,795212
1041,000000	36,852710
1040,000000	36,909969
1039,000000	36,967400
1038,000000	37,025525
1037,000000	37,085658
1036,000000	37,148719
1035,000000	37,214679
1034,000000	37,281978
1033,000000	37,352015
1032,000000	37,423624
1031,000000	37,496515
1030,000000	37,569820
1029,000000	37,643840
1028,000000	37,717299
1027,000000	37,791300
1026,000000	37,868565
1025,000000	37,943749
1024,000000	38,022545
1023,000000	38,106341
1022,000000	38,190019
1021,000000	38,271254
1020,000000	38,353149
1019,000000	38,442931
1018,000000	38,529618
1017,000000	38,611075
1016,000000	38,693228
1015,000000	38,779603
1014,000000	38,868884
1013,000000	38,956654
1012,000000	39,043185
1011,000000	39,127681
1010,000000	39,213975
1009,000000	39,298757
1008,000000	39,379073
1007,000000	39,462047
1006,000000	39,546155
1005,000000	39,630045
1004,000000	39,710861
1003,000000	39,793912
1002,000000	39,877588
1001,000000	39,960312
1000,000000	40,053523
999,000000	40,140561
998,000000	40,218413
997,000000	40,293651
996,000000	40,366757
995,000000	40,438169
994,000000	40,508028
993,000000	40,578593
992,000000	40,647999
991,000000	40,716369
990,000000	40,777839
989,000000	40,832788
988,000000	40,890385
987,000000	40,949483
986,000000	41,008965
985,000000	41,067593
984,000000	41,124222
983,000000	41,178388
982,000000	41,230772
981,000000	41,279731
980,000000	41,325190
979,000000	41,376158
978,000000	41,425044
977,000000	41,471767
976,000000	41,518535
975,000000	41,563274
974,000000	41,608815
973,000000	41,649290
972,000000	41,689637
971,000000	41,732028
970,000000	41,774563
969,000000	41,815332
968,000000	41,854298
967,000000	41,891366
966,000000	41,930322
965,000000	41,968631
964,000000	42,002039
963,000000	42,036700
962,000000	42,076080
961,000000	42,115380
960,000000	42,152987
959,000000	42,193110
958,000000	42,234155
957,000000	42,272521
956,000000	42,311237
955,000000	42,353923
954,000000	42,399088
953,000000	42,442888
952,000000	42,483980
951,000000	42,527103
950,000000	42,574078
949,000000	42,619601
948,000000	42,669484
947,000000	42,724287
946,000000	42,775452
945,000000	42,825298
944,000000	42,875778
943,000000	42,930269
942,000000	42,987444
941,000000	43,045807
940,000000	43,104856
939,000000	43,163398
938,000000	43,221660
937,000000	43,282840
936,000000	43,345959
935,000000	43,409992
934,000000	43,477537
933,000000	43,544759
932,000000	43,614676
931,000000	43,680833
930,000000	43,748733
929,000000	43,818937
928,000000	43,886499
927,000000	43,959823
926,000000	44,028901
925,000000	44,099948
924,000000	44,170390
923,000000	44,239866
922,000000	44,312592
921,000000	44,382256
920,000000	44,449385
919,000000	44,505679
918,000000	44,572165
917,000000	44,646578
916,000000	44,705364
915,000000	44,761252
914,000000	44,820493
913,000000	44,880172
912,000000	44,940767
911,000000	45,002985
910,000000	45,064231
909,000000	45,118906
908,000000	45,170820
907,000000	45,215428
906,000000	45,269147
905,000000	45,317564
904,000000	45,364387
903,000000	45,412017
902,000000	45,456968
901,000000	45,493639
900,000000	45,525691
899,000000	45,554553
898,000000	45,573435
897,000000	45,605698
896,000000	45,638556
895,000000	45,661046
894,000000	45,685886
893,000000	45,704003
892,000000	45,724927
891,000000	45,744575
890,000000	45,772540
889,000000	45,797447
888,000000	45,815692
887,000000	45,828660
886,000000	45,847318
885,000000	45,862434
884,000000	45,872848
883,000000	45,890869
882,000000	45,907309
881,000000	45,921661
880,000000	45,940228
879,000000	45,961303
878,000000	45,973424
877,000000	45,989821
876,000000	46,004119
875,000000	46,026987
874,000000	46,047417
873,000000	46,062285
872,000000	46,083248
871,000000	46,103846
870,000000	46,125768
869,000000	46,144225
868,000000	46,169115
867,000000	46,192770
866,000000	46,225480
865,000000	46,252266
864,000000	46,286884
863,000000	46,310192
862,000000	46,335978
861,000000	46,368129
860,000000	47,161330
859,000000	47,145683
858,000000	47,129267
857,000000	47,214600
856,000000	47,294525
855,000000	47,256409
854,000000	47,331169
853,000000	47,389690
852,000000	47,419660
851,000000	47,457946
850,000000	47,479934
849,000000	47,549174
848,000000	47,560267
847,000000	47,574688
846,000000	47,642021
845,000000	47,652849
844,000000	47,655120
843,000000	47,712711
842,000000	47,723831
841,000000	47,755976
840,000000	47,747513
839,000000	47,748698
838,000000	47,761373
837,000000	47,776872
836,000000	47,756435
835,000000	47,736676
834,000000	47,778115
833,000000	47,745157
832,000000	47,728191
831,000000	47,721685
830,000000	47,688094
829,000000	47,687612
828,000000	47,670270
827,000000	47,637418
826,000000	47,591054
825,000000	47,572110
824,000000	47,558430
823,000000	47,499582
822,000000	47,451736
821,000000	47,421462
820,000000	47,391528
819,000000	47,349286
818,000000	47,307549
817,000000	47,259130
816,000000	47,230423
815,000000	47,200758
814,000000	47,139056
813,000000	47,100168
812,000000	47,076784
811,000000	47,052515
810,000000	46,995134
809,000000	46,957461
808,000000	46,912672
807,000000	46,893473
806,000000	46,881524
805,000000	46,839679
804,000000	46,819801
803,000000	46,778583
802,000000	46,762403
801,000000	46,740984
800,000000	46,722295
799,000000	46,697270
798,000000	46,674985
797,000000	46,653101
796,000000	46,640055
795,000000	46,615988
794,000000	46,595660
793,000000	46,565205
792,000000	46,553722
791,000000	46,526236
790,000000	46,504205
789,000000	46,493972
788,000000	46,465931
787,000000	46,448053
786,000000	46,414495
785,000000	46,388649
784,000000	46,350773
783,000000	46,311819
782,000000	46,272893
781,000000	46,233278
780,000000	46,181449
779,000000	46,153328
778,000000	46,086190
777,000000	46,021396
776,000000	45,952875
775,000000	45,895653
774,000000	45,822395
773,000000	45,741857
772,000000	45,660379
771,000000	45,574304
770,000000	45,489126
769,000000	45,402386
768,000000	45,315115
767,000000	45,204447
766,000000	45,102338
765,000000	45,005177
764,000000	44,910110
763,000000	44,812744
762,000000	44,714289
761,000000	44,607273
760,000000	44,495142
759,000000	44,384853
758,000000	44,288927
757,000000	44,189583
756,000000	44,087473
755,000000	43,992160
754,000000	43,896252
753,000000	43,787643
752,000000	43,688555
751,000000	43,604683
750,000000	43,512466
749,000000	43,417709
748,000000	43,321760
747,000000	43,230470
746,000000	43,159760
745,000000	43,080915
744,000000	43,001188
743,000000	42,921378
742,000000	42,836622
741,000000	42,761943
740,000000	42,679485
739,000000	42,597241
738,000000	42,523405
737,000000	42,440119
736,000000	42,359616
735,000000	42,278287
734,000000	42,195015
733,000000	42,107130
732,000000	42,017317
731,000000	41,925521
730,000000	41,828594
729,000000	41,734056
728,000000	41,639252
727,000000	41,530274
726,000000	41,417522
725,000000	41,305044
724,000000	41,188459
723,000000	41,064728
722,000000	40,940097
721,000000	40,805932
720,000000	40,668643
719,000000	40,537729
718,000000	40,402089
717,000000	40,256647
716,000000	40,113402
715,000000	39,973593
714,000000	39,826805
713,000000	39,683175
712,000000	39,546792
711,000000	39,392216
710,000000	39,237018
709,000000	39,097980
708,000000	38,956313
707,000000	38,811377
706,000000	38,675327
705,000000	38,542152
704,000000	38,408792
703,000000	38,275827
702,000000	38,139034
701,000000	38,007903
700,000000	37,883049
699,000000	37,757085
698,000000	37,634244
697,000000	37,520229
696,000000	37,411854
695,000000	37,292212
694,000000	37,167766
693,000000	37,055018
692,000000	36,943058
691,000000	36,830229
690,000000	36,717461
689,000000	36,602693
688,000000	36,489923
687,000000	36,371979
686,000000	36,259763
685,000000	36,143402
684,000000	36,016936
683,000000	35,883554
682,000000	35,753287
681,000000	35,625924
680,000000	35,490065
679,000000	35,363890
678,000000	35,229238
677,000000	35,083874
676,000000	34,939084
675,000000	34,798723
674,000000	34,655481
673,000000	34,505493
672,000000	34,355905
671,000000	34,221274
670,000000	34,078897
669,000000	33,930553
668,000000	33,792370
667,000000	33,658848
666,000000	33,533286
665,000000	33,394721
664,000000	33,264472
663,000000	33,140117
662,000000	33,014454
661,000000	32,894613
660,000000	32,780003
659,000000	32,662082
658,000000	32,550178
657,000000	32,443380
656,000000	32,341950
655,000000	32,240891
654,000000	32,140718
653,000000	32,044469
652,000000	31,955934
651,000000	31,860781
650,000000	31,772821
649,000000	31,686115
648,000000	31,595213
647,000000	31,507657
646,000000	31,417154
645,000000	31,327322
644,000000	31,233766
643,000000	31,144255
642,000000	31,051267
641,000000	30,961281
640,000000	30,874117
639,000000	30,784677
638,000000	30,683319
637,000000	30,594244
636,000000	30,509952
635,000000	30,417497
634,000000	30,331453
633,000000	30,247148
632,000000	30,169562
631,000000	30,084328
630,000000	30,018003
629,000000	29,946097
628,000000	29,880976
627,000000	29,822992
626,000000	29,765703
625,000000	29,720423
624,000000	29,680701
623,000000	29,643109
622,000000	29,609925
621,000000	29,586525
620,000000	29,559324
619,000000	29,539590
618,000000	29,523758
617,000000	29,510204
616,000000	29,507995
615,000000	29,506491
614,000000	29,503841
613,000000	29,498241
612,000000	29,505578
611,000000	29,513158
610,000000	29,514914
609,000000	29,515971
608,000000	29,521388
607,000000	29,525341
606,000000	29,536873
605,000000	29,540667
604,000000	29,544483
603,000000	29,553510
602,000000	29,565727
601,000000	29,581356
600,000000	29,589774
599,000000	29,605333
598,000000	29,626704
597,000000	29,664416
596,000000	29,696592
595,000000	29,737751
594,000000	29,791174
593,000000	29,846961
592,000000	29,911684
591,000000	29,975615
590,000000	30,059753
589,000000	30,145734
588,000000	30,235937
587,000000	30,333305
586,000000	30,450004
585,000000	30,554507
584,000000	30,675219
583,000000	30,780462
582,000000	30,899831
581,000000	31,017006
580,000000	31,130873
579,000000	31,237294
578,000000	31,359686
577,000000	31,476983
576,000000	31,586086
575,000000	31,699720
574,000000	31,805212
573,000000	31,913046
572,000000	32,014558
571,000000	32,126655
570,000000	32,233449
569,000000	32,345706
568,000000	32,464144
567,000000	32,581830
566,000000	32,705180
565,000000	32,843843
564,000000	32,978700
563,000000	33,131655
562,000000	33,272963
561,000000	33,430521
560,000000	33,604563
559,000000	33,774129
558,000000	33,952921
557,000000	34,135521
556,000000	34,316936
555,000000	34,495949
554,000000	34,675588
553,000000	34,855482
552,000000	35,022212
551,000000	35,184073
550,000000	35,336803
549,000000	35,478746
548,000000	35,618417
547,000000	35,753722
546,000000	35,880692
545,000000	36,003793
544,000000	36,123834
543,000000	36,240260
542,000000	36,357186
541,000000	36,474158
540,000000	36,599093
539,000000	36,737203
538,000000	36,861419
537,000000	36,997716
536,000000	37,135353
535,000000	37,275068
534,000000	37,414584
533,000000	37,552278
532,000000	37,688382
531,000000	37,810514
530,000000	37,919370
529,000000	38,020422
528,000000	38,106018
527,000000	38,186031
526,000000	38,242677
525,000000	38,288707
524,000000	38,320979
523,000000	38,349148
522,000000	38,355637
521,000000	38,354587
520,000000	38,348611
519,000000	38,352217
518,000000	38,354901
517,000000	38,352496
516,000000	38,344557
515,000000	38,333526
514,000000	38,328629
513,000000	38,318970
512,000000	38,301328
511,000000	38,267436
510,000000	38,225760
509,000000	38,171348
508,000000	38,095179
507,000000	37,992702
506,000000	37,873940
505,000000	37,735003
504,000000	37,577769
503,000000	37,394588
502,000000	37,201463
501,000000	36,998576
500,000000	36,791397
499,000000	36,574511
498,000000	36,368605
497,000000	36,163038
496,000000	35,953122
495,000000	35,746121
494,000000	35,544417
493,000000	35,340933
492,000000	35,130161
491,000000	34,913761
490,000000	34,685825
489,000000	34,440321
488,000000	34,189719
487,000000	33,909509
486,000000	33,619456
485,000000	33,323084
484,000000	33,014906
483,000000	32,711536
482,000000	32,410777
481,000000	32,135062
480,000000	31,878410
479,000000	31,615135
478,000000	31,342954
477,000000	31,082593
476,000000	30,819578
475,000000	30,567817
474,000000	30,331094
473,000000	30,095713
472,000000	29,858732
471,000000	29,615607
470,000000	29,370778
469,000000	29,115116
468,000000	28,865233
467,000000	28,624648
466,000000	28,396984
465,000000	28,183315
464,000000	27,980415
463,000000	27,801839
462,000000	27,654890
461,000000	27,534188
460,000000	27,432753
459,000000	27,351586
458,000000	27,283221
457,000000	27,235505
456,000000	27,197531
455,000000	27,174777
454,000000	27,160034
453,000000	27,163087
452,000000	27,179638
451,000000	27,208959
450,000000	27,269052
449,000000	27,354477
448,000000	27,470528
447,000000	27,606763
446,000000	27,775382
445,000000	27,955503
444,000000	28,137255
443,000000	28,325730
442,000000	28,505825
441,000000	28,677135
440,000000	28,830835
439,000000	28,973073
438,000000	29,109637
437,000000	29,225321
436,000000	29,339855
435,000000	29,449839
434,000000	29,533009
433,000000	29,570492
432,000000	29,560487
431,000000	29,497528
430,000000	29,357291
429,000000	29,132890
428,000000	28,805467
427,000000	28,391371
426,000000	27,893501
425,000000	27,301404
424,000000	26,611730
423,000000	25,804880
422,000000	24,888366
421,000000	23,879154
420,000000	22,799416
419,000000	21,704536
418,000000	20,630897
417,000000	19,598038
416,000000	18,647134
415,000000	17,790393
414,000000	17,045891
413,000000	16,417092
412,000000	15,891542
411,000000	15,463553
410,000000	15,119281
409,000000	14,842602
408,000000	14,627345
407,000000	14,459622
406,000000	14,325213
405,000000	14,216666
404,000000	14,122569
403,000000	14,042375
402,000000	13,973944
401,000000	13,907244
400,000000	13,839685
399,000000	13,765452
398,000000	13,686155
397,000000	13,603516
396,000000	13,512627
395,000000	13,415774
394,000000	13,312015
393,000000	13,205986
392,000000	13,099737
391,000000	12,989569
390,000000	12,878773
389,000000	12,771462
388,000000	12,673120
387,000000	12,589426
386,000000	12,507025
385,000000	12,428420
384,000000	12,362595
383,000000	12,312993
382,000000	12,266715
381,000000	12,218879
380,000000	12,181084
379,000000	12,052417
378,000000	11,916363
377,000000	11,863279
376,000000	11,840289
375,000000	11,806394
374,000000	11,763414
373,000000	11,725542
372,000000	11,664974
371,000000	11,609122
370,000000	11,528193
369,000000	11,461133
368,000000	11,374191
367,000000	11,280732
366,000000	11,171731
365,000000	11,051155
364,000000	10,925856
363,000000	10,798013
362,000000	10,645546
361,000000	10,485191
360,000000	10,320589
359,000000	10,145790
358,000000	9,957433
357,000000	9,774525
356,000000	9,579676
355,000000	9,351080
354,000000	9,143918
353,000000	8,940505
352,000000	8,725290
351,000000	8,508120
350,000000	8,308336
349,000000	8,101732
348,000000	7,894263
347,000000	7,710941
346,000000	7,535991
345,000000	7,363428
344,000000	7,191121
343,000000	7,037071
342,000000	6,897891
341,000000	6,758666
340,000000	6,606919
339,000000	6,469769
338,000000	6,327404
337,000000	6,213263
336,000000	6,083397
335,000000	5,960949
334,000000	5,846059
333,000000	5,741963
332,000000	5,622836
331,000000	5,509409
330,000000	5,405715
329,000000	5,297894
328,000000	5,189044
327,000000	5,071921
326,000000	4,947461
325,000000	4,825614
324,000000	4,711687
323,000000	4,602409
322,000000	4,500373
321,000000	4,408316
320,000000	4,337304
319,000000	4,275761
318,000000	4,194242
317,000000	4,113855
316,000000	4,038662
315,000000	3,970878
314,000000	3,907175
313,000000	3,842901
312,000000	3,786203
311,000000	3,729864
310,000000	3,680472
309,000000	3,630234
308,000000	3,592085
307,000000	3,557796
306,000000	3,527666
305,000000	3,504108
304,000000	3,479830
303,000000	3,453465
302,000000	3,427116
301,000000	3,399581
300,000000	3,364704
299,000000	3,322098
298,000000	3,271606
297,000000	3,218701
296,000000	3,164818
295,000000	3,101215
294,000000	3,040369
293,000000	2,966808
292,000000	2,893628
291,000000	2,812867
290,000000	2,723743
289,000000	2,627472
288,000000	2,513430
287,000000	2,393050
286,000000	2,247669
285,000000	2,094297
284,000000	1,928744
283,000000	1,753272
282,000000	1,577187
281,000000	1,396436
280,000000	1,219865
279,000000	1,049932
278,000000	0,881679
277,000000	0,730142
276,000000	0,593026
275,000000	0,479299
274,000000	0,384402
273,000000	0,312365
272,000000	0,264765
271,000000	0,229600
270,000000	0,208707
269,000000	0,198223
268,000000	0,194043
267,000000	0,190767
266,000000	0,186084
265,000000	0,184702
264,000000	0,176711
263,000000	0,176371
262,000000	0,174874
261,000000	0,171895
260,000000	0,172263
259,000000	0,171779
258,000000	0,169979
257,000000	0,169672
256,000000	0,173601
255,000000	0,172475
254,000000	0,170131
253,000000	0,169048
252,000000	0,168066
251,000000	0,167715
250,000000	0,167313
249,000000	0,167972
248,000000	0,168071
247,000000	0,165912
246,000000	0,167367
245,000000	0,167005
244,000000	0,168658
243,000000	0,169653
242,000000	0,168271
241,000000	0,170560
240,000000	0,169869
239,000000	0,172055
238,000000	0,174097
237,000000	0,174536
236,000000	0,175595
235,000000	0,176781
234,000000	0,177922
233,000000	0,178863
232,000000	0,178144
231,000000	0,180459
230,000000	0,177957
229,000000	0,177962
228,000000	0,178433
227,000000	0,179796
226,000000	0,177907
225,000000	0,176984
224,000000	0,177794
223,000000	0,176946
222,000000	0,177435
221,000000	0,177497
220,000000	0,178477
219,000000	0,177177
218,000000	0,177487
217,000000	0,177391
216,000000	0,175089
215,000000	0,175724
214,000000	0,177151
213,000000	0,179422
212,000000	0,178310
211,000000	0,179953
210,000000	0,182267
209,000000	0,182777
208,000000	0,184309
207,000000	0,184477
206,000000	0,186710
205,000000	0,188190
204,000000	0,190165
203,000000	0,190259
202,000000	0,192838
201,000000	0,195047
200,000000	0,199738
