PE UV       SUBTECH     SPECTRUM    ASCII       PEDS        4.00        
   -1
Q1dotzoom.Sample.asc
22/03/23
16:35:00.00
22/03/23
16:35:00.00
Administrator

350,000000
1
Lambda 1050
1050L1808311
PerkinElmer UV WinLab 6.4.0.973 / 2.02.11 Lambda 900 UV/VIS/NIR, May 23 2018 11:23:04

0
0
3350/servo 1800,8/servo 860,8/1
0
0
UV/VIS
1
1
1
CommonBeamDepol,RBeamAtt,SBeamAtt,uv/vis/nir detector, TDS WB InGaAs Detector
0
0
0
0
Program
 
0
3350/0,2 1800,8/0,2 860,8/0,2
0
0
0
 
 
 
0
 
860,8
319,2
1800,8 860,8
Front
100
on
S:100 R:100
 
0
0
0
 
0
 
 
 
0
 
 
0
0
0
0
0
 
 
 
 
0
0


0
0
#HDR
-1
-1
#GR
nm
%T
1.0
0.0
600,000000
-0,500000
501
8
36,815823
8,010255
#DATA
600,000000	27,680523
599,500000	27,693416
599,000000	27,706600
598,500000	27,724915
598,000000	27,737469
597,500000	27,750507
597,000000	27,764923
596,500000	27,785273
596,000000	27,794532
595,500000	27,819253
595,000000	27,837215
594,500000	27,865223
594,000000	27,892509
593,500000	27,919199
593,000000	27,946926
592,500000	27,959257
592,000000	27,997230
591,500000	28,029469
591,000000	28,057199
590,500000	28,097964
590,000000	28,143208
589,500000	28,179373
589,000000	28,216392
588,500000	28,265326
588,000000	28,308609
587,500000	28,357595
587,000000	28,406793
586,500000	28,463176
586,000000	28,513913
585,500000	28,561377
585,000000	28,610846
584,500000	28,671919
584,000000	28,735460
583,500000	28,796226
583,000000	28,842962
582,500000	28,911905
582,000000	28,962830
581,500000	29,035162
581,000000	29,106404
580,500000	29,169962
580,000000	29,229202
579,500000	29,286610
579,000000	29,350300
578,500000	29,417861
578,000000	29,475077
577,500000	29,530321
577,000000	29,593597
576,500000	29,652201
576,000000	29,708164
575,500000	29,761418
575,000000	29,827175
574,500000	29,894067
574,000000	29,959262
573,500000	30,022403
573,000000	30,072239
572,500000	30,118565
572,000000	30,169340
571,500000	30,236994
571,000000	30,291678
570,500000	30,351862
570,000000	30,415864
569,500000	30,466273
569,000000	30,529904
568,500000	30,589712
568,000000	30,647866
567,500000	30,707248
567,000000	30,772336
566,500000	30,825471
566,000000	30,889135
565,500000	30,961862
565,000000	31,030566
564,500000	31,101223
564,000000	31,164602
563,500000	31,235235
563,000000	31,306546
562,500000	31,367790
562,000000	31,439983
561,500000	31,525622
561,000000	31,600504
560,500000	31,680922
560,000000	31,769769
559,500000	31,850289
559,000000	31,932380
558,500000	32,020354
558,000000	32,100248
557,500000	32,187467
557,000000	32,284254
556,500000	32,370779
556,000000	32,463922
555,500000	32,551542
555,000000	32,637827
554,500000	32,733919
554,000000	32,827199
553,500000	32,929004
553,000000	33,026999
552,500000	33,108568
552,000000	33,188255
551,500000	33,278326
551,000000	33,371557
550,500000	33,464190
550,000000	33,543417
549,500000	33,626634
549,000000	33,710989
548,500000	33,789016
548,000000	33,870909
547,500000	33,945187
547,000000	34,019405
546,500000	34,091064
546,000000	34,158436
545,500000	34,226038
545,000000	34,298865
544,500000	34,364057
544,000000	34,428523
543,500000	34,488609
543,000000	34,556513
542,500000	34,624004
542,000000	34,683677
541,500000	34,743443
541,000000	34,808337
540,500000	34,866695
540,000000	34,924390
539,500000	34,989965
539,000000	35,054277
538,500000	35,115035
538,000000	35,181041
537,500000	35,247918
537,000000	35,319543
536,500000	35,389450
536,000000	35,460390
535,500000	35,537206
535,000000	35,602775
534,500000	35,666542
534,000000	35,739382
533,500000	35,809990
533,000000	35,878078
532,500000	35,948608
532,000000	36,022401
531,500000	36,088447
531,000000	36,148365
530,500000	36,205519
530,000000	36,260259
529,500000	36,321268
529,000000	36,379291
528,500000	36,441108
528,000000	36,496324
527,500000	36,541195
527,000000	36,589106
526,500000	36,632817
526,000000	36,667673
525,500000	36,695441
525,000000	36,725527
524,500000	36,751101
524,000000	36,768016
523,500000	36,781923
523,000000	36,789434
522,500000	36,804912
522,000000	36,815823
521,500000	36,811707
521,000000	36,804588
520,500000	36,794874
520,000000	36,786944
519,500000	36,781116
519,000000	36,772722
518,500000	36,763457
518,000000	36,755701
517,500000	36,744046
517,000000	36,734861
516,500000	36,724290
516,000000	36,710557
515,500000	36,695815
515,000000	36,677170
514,500000	36,657282
514,000000	36,631397
513,500000	36,612617
513,000000	36,593959
512,500000	36,570482
512,000000	36,555381
511,500000	36,534177
511,000000	36,507606
510,500000	36,484696
510,000000	36,454820
509,500000	36,420097
509,000000	36,386538
508,500000	36,346826
508,000000	36,307791
507,500000	36,265220
507,000000	36,212261
506,500000	36,151317
506,000000	36,085724
505,500000	36,013303
505,000000	35,940101
504,500000	35,868100
504,000000	35,788610
503,500000	35,704489
503,000000	35,614336
502,500000	35,523446
502,000000	35,435893
501,500000	35,339608
501,000000	35,246303
500,500000	35,140607
500,000000	35,022299
499,500000	34,913346
499,000000	34,807422
498,500000	34,701881
498,000000	34,583677
497,500000	34,483996
497,000000	34,381470
496,500000	34,269203
496,000000	34,158694
495,500000	34,045631
495,000000	33,935830
494,500000	33,826872
494,000000	33,717881
493,500000	33,607497
493,000000	33,510536
492,500000	33,400911
492,000000	33,281655
491,500000	33,187239
491,000000	33,085003
490,500000	32,972116
490,000000	32,855430
489,500000	32,739652
489,000000	32,624401
488,500000	32,499062
488,000000	32,384389
487,500000	32,261611
487,000000	32,122538
486,500000	31,988374
486,000000	31,852650
485,500000	31,710273
485,000000	31,567005
484,500000	31,425358
484,000000	31,288899
483,500000	31,140439
483,000000	30,999313
482,500000	30,851783
482,000000	30,699188
481,500000	30,557951
481,000000	30,417851
480,500000	30,278468
480,000000	30,144683
479,500000	30,003500
479,000000	29,862607
478,500000	29,711407
478,000000	29,563634
477,500000	29,429261
477,000000	29,308566
476,500000	29,167267
476,000000	29,038427
475,500000	28,916556
475,000000	28,787733
474,500000	28,656434
474,000000	28,533046
473,500000	28,410794
473,000000	28,294333
472,500000	28,180304
472,000000	28,047709
471,500000	27,926137
471,000000	27,801867
470,500000	27,675385
470,000000	27,559796
469,500000	27,445124
469,000000	27,331435
468,500000	27,216727
468,000000	27,096327
467,500000	26,969905
467,000000	26,858213
466,500000	26,743462
466,000000	26,640571
465,500000	26,529919
465,000000	26,417662
464,500000	26,319203
464,000000	26,233095
463,500000	26,130549
463,000000	26,043113
462,500000	25,981807
462,000000	25,916962
461,500000	25,839924
461,000000	25,793018
460,500000	25,739501
460,000000	25,688780
459,500000	25,652529
459,000000	25,615231
458,500000	25,598833
458,000000	25,579593
457,500000	25,565941
457,000000	25,559890
456,500000	25,568885
456,000000	25,559295
455,500000	25,549053
455,000000	25,567746
454,500000	25,564014
454,000000	25,566191
453,500000	25,583018
453,000000	25,597185
452,500000	25,614380
452,000000	25,648806
451,500000	25,666652
451,000000	25,692828
450,500000	25,722696
450,000000	25,767852
449,500000	25,812335
449,000000	25,858587
448,500000	25,919133
448,000000	25,974332
447,500000	26,054643
447,000000	26,111570
446,500000	26,199947
446,000000	26,301633
445,500000	26,385320
445,000000	26,478058
444,500000	26,586860
444,000000	26,694341
443,500000	26,795009
443,000000	26,908466
442,500000	27,021228
442,000000	27,115001
441,500000	27,209246
441,000000	27,300725
440,500000	27,407756
440,000000	27,486409
439,500000	27,560480
439,000000	27,639293
438,500000	27,707541
438,000000	27,780882
437,500000	27,848510
437,000000	27,906287
436,500000	27,957655
436,000000	28,029228
435,500000	28,074250
435,000000	28,119585
434,500000	28,171076
434,000000	28,191483
433,500000	28,225236
433,000000	28,241540
432,500000	28,244390
432,000000	28,238565
431,500000	28,217381
431,000000	28,185429
430,500000	28,127183
430,000000	28,060522
429,500000	27,947647
429,000000	27,840322
428,500000	27,699834
428,000000	27,533207
427,500000	27,341336
427,000000	27,128132
426,500000	26,874135
426,000000	26,612251
425,500000	26,330851
425,000000	26,018757
424,500000	25,678493
424,000000	25,323315
423,500000	24,931391
423,000000	24,512682
422,500000	24,071158
422,000000	23,602931
421,500000	23,111998
421,000000	22,617400
420,500000	22,085276
420,000000	21,542237
419,500000	20,998631
419,000000	20,459847
418,500000	19,941945
418,000000	19,431722
417,500000	18,924954
417,000000	18,435258
416,500000	17,965830
416,000000	17,521529
415,500000	17,101085
415,000000	16,712190
414,500000	16,349304
414,000000	16,016399
413,500000	15,711093
413,000000	15,433362
412,500000	15,175956
412,000000	14,946168
411,500000	14,745788
411,000000	14,564925
410,500000	14,400553
410,000000	14,257625
409,500000	14,123687
409,000000	14,010185
408,500000	13,909420
408,000000	13,812554
407,500000	13,732312
407,000000	13,668415
406,500000	13,611503
406,000000	13,559684
405,500000	13,509772
405,000000	13,462836
404,500000	13,413093
404,000000	13,377409
403,500000	13,337958
403,000000	13,300649
402,500000	13,265701
402,000000	13,241318
401,500000	13,217267
401,000000	13,181658
400,500000	13,146463
400,000000	13,121378
399,500000	13,091161
399,000000	13,058606
398,500000	13,024950
398,000000	12,985965
397,500000	12,944925
397,000000	12,902732
396,500000	12,863743
396,000000	12,820711
395,500000	12,774815
395,000000	12,729675
394,500000	12,683341
394,000000	12,629415
393,500000	12,578015
393,000000	12,529203
392,500000	12,481625
392,000000	12,432889
391,500000	12,376942
391,000000	12,317087
390,500000	12,270580
390,000000	12,223221
389,500000	12,173191
389,000000	12,129482
388,500000	12,082687
388,000000	12,031554
387,500000	11,986283
387,000000	11,936226
386,500000	11,894101
386,000000	11,866859
385,500000	11,836477
385,000000	11,798259
384,500000	11,761284
384,000000	11,735226
383,500000	11,704576
383,000000	11,673919
382,500000	11,656091
382,000000	11,637297
381,500000	11,618662
381,000000	11,599591
380,500000	11,580239
380,000000	11,561988
379,500000	11,546661
379,000000	11,522645
378,500000	11,488412
378,000000	11,464027
377,500000	11,450240
377,000000	11,424744
376,500000	11,410399
376,000000	11,422056
375,500000	11,400015
375,000000	11,384053
374,500000	11,371561
374,000000	11,338217
373,500000	11,309136
373,000000	11,286309
372,500000	11,270115
372,000000	11,224140
371,500000	11,189488
371,000000	11,167161
370,500000	11,140829
370,000000	11,092757
369,500000	11,056733
369,000000	11,025162
368,500000	11,005922
368,000000	10,955088
367,500000	10,901425
367,000000	10,853635
366,500000	10,808128
366,000000	10,754939
365,500000	10,706660
365,000000	10,643629
364,500000	10,587057
364,000000	10,534431
363,500000	10,469269
363,000000	10,382132
362,500000	10,327389
362,000000	10,257542
361,500000	10,180103
361,000000	10,121534
360,500000	10,054559
360,000000	9,956727
359,500000	9,876293
359,000000	9,790080
358,500000	9,707974
358,000000	9,617953
357,500000	9,521764
357,000000	9,426809
356,500000	9,318945
356,000000	9,229986
355,500000	9,117241
355,000000	9,011440
354,500000	8,925983
354,000000	8,844362
353,500000	8,728071
353,000000	8,622018
352,500000	8,514615
352,000000	8,408603
351,500000	8,296528
351,000000	8,225132
350,500000	8,102270
350,000000	8,010255
