PE UV       SUBTECH     SPECTRUM    ASCII       PEDS        4.00        
   -1
Q1zoom.Sample.asc
22/03/23
16:23:20.00
22/03/23
16:23:20.00
Administrator

350,000000
1
Lambda 1050
1050L1808311
PerkinElmer UV WinLab 6.4.0.973 / 2.02.11 Lambda 900 UV/VIS/NIR, May 23 2018 11:23:04

0
0
3350/servo 1800,8/servo 860,8/1
0
0
UV/VIS
1
1
1
CommonBeamDepol,RBeamAtt,SBeamAtt,uv/vis/nir detector, TDS WB InGaAs Detector
0
0
0
0
Program
 
0
3350/0,2 1800,8/0,2 860,8/0,2
0
0
0
 
 
 
0
 
860,8
319,2
1800,8 860,8
Front
100
on
S:100 R:100
 
0
0
0
 
0
 
 
 
0
 
 
0
0
0
0
0
 
 
 
 
0
0


0
0
#HDR
-1
-1
#GR
nm
%T
1.0
0.0
600,000000
-0,500000
501
8
13,178678
4,065939
#DATA
600,000000	12,609448
599,500000	12,599039
599,000000	12,581869
598,500000	12,567690
598,000000	12,558116
597,500000	12,550285
597,000000	12,531871
596,500000	12,512964
596,000000	12,491383
595,500000	12,481057
595,000000	12,468497
594,500000	12,452412
594,000000	12,430762
593,500000	12,413928
593,000000	12,396802
592,500000	12,378686
592,000000	12,358624
591,500000	12,335613
591,000000	12,308721
590,500000	12,299319
590,000000	12,275264
589,500000	12,251297
589,000000	12,231653
588,500000	12,213565
588,000000	12,188731
587,500000	12,168473
587,000000	12,141970
586,500000	12,125679
586,000000	12,101329
585,500000	12,080578
585,000000	12,057861
584,500000	12,036502
584,000000	12,017228
583,500000	11,995447
583,000000	11,973689
582,500000	11,950756
582,000000	11,929929
581,500000	11,910567
581,000000	11,895052
580,500000	11,869408
580,000000	11,849709
579,500000	11,834001
579,000000	11,812226
578,500000	11,793900
578,000000	11,781984
577,500000	11,764943
577,000000	11,753942
576,500000	11,731733
576,000000	11,720309
575,500000	11,702457
575,000000	11,694482
574,500000	11,675446
574,000000	11,662802
573,500000	11,652812
573,000000	11,635259
572,500000	11,628216
572,000000	11,617680
571,500000	11,609525
571,000000	11,593897
570,500000	11,581837
570,000000	11,574275
569,500000	11,563880
569,000000	11,558506
568,500000	11,553813
568,000000	11,545267
567,500000	11,532373
567,000000	11,528512
566,500000	11,518199
566,000000	11,507787
565,500000	11,498467
565,000000	11,492815
564,500000	11,487606
564,000000	11,479921
563,500000	11,471401
563,000000	11,467006
562,500000	11,454968
562,000000	11,435926
561,500000	11,427817
561,000000	11,420483
560,500000	11,410416
560,000000	11,404898
559,500000	11,396008
559,000000	11,384203
558,500000	11,374877
558,000000	11,360586
557,500000	11,347845
557,000000	11,335869
556,500000	11,324441
556,000000	11,316662
555,500000	11,303147
555,000000	11,289998
554,500000	11,276430
554,000000	11,264606
553,500000	11,251691
553,000000	11,244388
552,500000	11,231075
552,000000	11,217397
551,500000	11,205260
551,000000	11,192459
550,500000	11,186249
550,000000	11,176944
549,500000	11,164111
549,000000	11,152685
548,500000	11,144401
548,000000	11,135741
547,500000	11,128974
547,000000	11,119252
546,500000	11,108863
546,000000	11,104655
545,500000	11,094908
545,000000	11,088240
544,500000	11,084265
544,000000	11,079923
543,500000	11,077069
543,000000	11,075935
542,500000	11,075656
542,000000	11,076292
541,500000	11,076444
541,000000	11,076424
540,500000	11,074429
540,000000	11,078334
539,500000	11,080890
539,000000	11,079258
538,500000	11,081108
538,000000	11,085302
537,500000	11,091088
537,000000	11,100499
536,500000	11,106479
536,000000	11,110481
535,500000	11,116378
535,000000	11,122991
534,500000	11,128442
534,000000	11,136650
533,500000	11,143000
533,000000	11,147922
532,500000	11,154820
532,000000	11,160509
531,500000	11,164760
531,000000	11,169210
530,500000	11,175428
530,000000	11,183303
529,500000	11,188979
529,000000	11,195502
528,500000	11,200710
528,000000	11,204249
527,500000	11,209259
527,000000	11,213205
526,500000	11,219496
526,000000	11,222701
525,500000	11,225189
525,000000	11,227731
524,500000	11,226902
524,000000	11,228953
523,500000	11,235860
523,000000	11,240454
522,500000	11,243914
522,000000	11,249039
521,500000	11,254243
521,000000	11,255594
520,500000	11,257895
520,000000	11,262394
519,500000	11,268958
519,000000	11,278551
518,500000	11,285797
518,000000	11,294345
517,500000	11,303469
517,000000	11,312617
516,500000	11,326545
516,000000	11,341285
515,500000	11,355704
515,000000	11,368878
514,500000	11,384134
514,000000	11,399389
513,500000	11,415170
513,000000	11,435015
512,500000	11,454497
512,000000	11,475680
511,500000	11,503062
511,000000	11,529282
510,500000	11,550350
510,000000	11,572124
509,500000	11,594300
509,000000	11,618812
508,500000	11,646633
508,000000	11,673653
507,500000	11,702894
507,000000	11,729345
506,500000	11,758337
506,000000	11,782939
505,500000	11,801697
505,000000	11,825834
504,500000	11,850546
504,000000	11,874740
503,500000	11,895855
503,000000	11,914980
502,500000	11,937941
502,000000	11,959960
501,500000	11,981122
501,000000	11,998335
500,500000	12,015202
500,000000	12,037507
499,500000	12,052336
499,000000	12,068099
498,500000	12,083786
498,000000	12,102886
497,500000	12,122326
497,000000	12,135841
496,500000	12,147225
496,000000	12,159958
495,500000	12,173471
495,000000	12,191205
494,500000	12,207229
494,000000	12,225558
493,500000	12,237754
493,000000	12,256491
492,500000	12,275980
492,000000	12,293090
491,500000	12,309634
491,000000	12,335663
490,500000	12,354114
490,000000	12,374214
489,500000	12,393498
489,000000	12,417790
488,500000	12,445308
488,000000	12,473773
487,500000	12,501382
487,000000	12,525097
486,500000	12,549789
486,000000	12,576316
485,500000	12,602773
485,000000	12,636147
484,500000	12,662531
484,000000	12,687188
483,500000	12,713265
483,000000	12,736671
482,500000	12,757437
482,000000	12,772052
481,500000	12,792577
481,000000	12,811867
480,500000	12,828607
480,000000	12,844745
479,500000	12,869778
479,000000	12,895593
478,500000	12,911101
478,000000	12,916719
477,500000	12,933938
477,000000	12,954196
476,500000	12,960328
476,000000	12,966717
475,500000	12,972737
475,000000	12,975976
474,500000	12,989004
474,000000	12,993125
473,500000	12,995133
473,000000	13,001449
472,500000	13,006389
472,000000	13,011509
471,500000	13,016187
471,000000	13,024896
470,500000	13,025173
470,000000	13,036729
469,500000	13,043522
469,000000	13,051534
468,500000	13,061564
468,000000	13,073799
467,500000	13,081909
467,000000	13,090124
466,500000	13,100772
466,000000	13,113985
465,500000	13,124704
465,000000	13,138054
464,500000	13,148211
464,000000	13,155877
463,500000	13,162750
463,000000	13,167898
462,500000	13,178678
462,000000	13,174467
461,500000	13,174834
461,000000	13,176906
460,500000	13,171239
460,000000	13,166381
459,500000	13,155321
459,000000	13,146219
458,500000	13,133631
458,000000	13,115527
457,500000	13,104816
457,000000	13,080483
456,500000	13,065073
456,000000	13,035711
455,500000	13,007757
455,000000	12,981005
454,500000	12,951960
454,000000	12,923282
453,500000	12,892957
453,000000	12,864335
452,500000	12,831979
452,000000	12,804866
451,500000	12,772460
451,000000	12,749707
450,500000	12,722812
450,000000	12,690713
449,500000	12,667774
449,000000	12,640752
448,500000	12,614969
448,000000	12,591339
447,500000	12,572190
447,000000	12,546457
446,500000	12,520776
446,000000	12,495454
445,500000	12,465350
445,000000	12,433750
444,500000	12,404306
444,000000	12,372090
443,500000	12,335335
443,000000	12,304036
442,500000	12,262702
442,000000	12,227374
441,500000	12,179978
441,000000	12,129076
440,500000	12,090379
440,000000	12,037412
439,500000	11,988901
439,000000	11,940965
438,500000	11,888253
438,000000	11,832151
437,500000	11,779818
437,000000	11,732361
436,500000	11,683135
436,000000	11,629774
435,500000	11,584449
435,000000	11,538855
434,500000	11,496056
434,000000	11,448311
433,500000	11,409248
433,000000	11,374423
432,500000	11,332394
432,000000	11,299195
431,500000	11,257584
431,000000	11,221770
430,500000	11,189053
430,000000	11,145624
429,500000	11,096682
429,000000	11,060180
428,500000	11,006894
428,000000	10,951621
427,500000	10,898411
427,000000	10,833299
426,500000	10,762700
426,000000	10,690041
425,500000	10,611654
425,000000	10,531302
424,500000	10,450116
424,000000	10,358164
423,500000	10,262811
423,000000	10,161709
422,500000	10,055851
422,000000	9,948439
421,500000	9,837304
421,000000	9,712151
420,500000	9,586804
420,000000	9,450019
419,500000	9,313208
419,000000	9,172383
418,500000	9,019083
418,000000	8,862518
417,500000	8,702977
417,000000	8,540773
416,500000	8,379433
416,000000	8,216634
415,500000	8,055906
415,000000	7,897137
414,500000	7,744537
414,000000	7,598029
413,500000	7,452747
413,000000	7,320781
412,500000	7,194290
412,000000	7,077498
411,500000	6,961838
411,000000	6,855822
410,500000	6,761510
410,000000	6,671983
409,500000	6,589964
409,000000	6,517529
408,500000	6,448675
408,000000	6,386738
407,500000	6,329393
407,000000	6,273604
406,500000	6,229363
406,000000	6,189654
405,500000	6,150514
405,000000	6,111792
404,500000	6,078705
404,000000	6,052704
403,500000	6,026028
403,000000	5,998461
402,500000	5,974531
402,000000	5,954508
401,500000	5,934245
401,000000	5,910429
400,500000	5,895572
400,000000	5,886629
399,500000	5,872357
399,000000	5,854175
398,500000	5,838745
398,000000	5,820316
397,500000	5,807470
397,000000	5,790110
396,500000	5,773089
396,000000	5,760001
395,500000	5,742422
395,000000	5,726280
394,500000	5,707833
394,000000	5,690401
393,500000	5,670930
393,000000	5,652060
392,500000	5,636288
392,000000	5,617517
391,500000	5,598493
391,000000	5,581854
390,500000	5,561505
390,000000	5,541698
389,500000	5,524755
389,000000	5,509972
388,500000	5,491506
388,000000	5,475930
387,500000	5,464523
387,000000	5,447145
386,500000	5,434307
386,000000	5,421002
385,500000	5,407745
385,000000	5,397768
384,500000	5,387893
384,000000	5,379730
383,500000	5,369981
383,000000	5,362525
382,500000	5,357914
382,000000	5,354890
381,500000	5,351107
381,000000	5,342872
380,500000	5,337070
380,000000	5,334422
379,500000	5,331427
379,000000	5,261115
378,500000	5,174237
378,000000	5,148019
377,500000	5,125947
377,000000	5,126773
376,500000	5,130756
376,000000	5,133897
375,500000	5,140171
375,000000	5,139155
374,500000	5,134236
374,000000	5,121413
373,500000	5,137061
373,000000	5,140667
372,500000	5,123730
372,000000	5,111099
371,500000	5,108874
371,000000	5,101334
370,500000	5,105128
370,000000	5,093768
369,500000	5,077713
369,000000	5,062332
368,500000	5,053563
368,000000	5,048791
367,500000	5,036584
367,000000	5,014574
366,500000	5,002363
366,000000	4,994434
365,500000	4,977387
365,000000	4,960722
364,500000	4,944585
364,000000	4,921408
363,500000	4,897070
363,000000	4,869836
362,500000	4,851872
362,000000	4,836823
361,500000	4,811097
361,000000	4,788202
360,500000	4,766027
360,000000	4,731282
359,500000	4,709161
359,000000	4,689879
358,500000	4,657539
358,000000	4,623116
357,500000	4,586290
357,000000	4,553624
356,500000	4,534866
356,000000	4,502664
355,500000	4,471109
355,000000	4,430109
354,500000	4,398856
354,000000	4,360488
353,500000	4,315982
353,000000	4,282074
352,500000	4,243215
352,000000	4,204116
351,500000	4,182699
351,000000	4,138623
350,500000	4,103865
350,000000	4,065939
