PE UV       SUBTECH     SPECTRUM    ASCII       PEDS        4.00        
   -1
Q2.Sample.asc
22/03/23
15:31:53.00
22/03/23
15:31:53.00
Administrator

200,000000
1
Lambda 1050
1050L1808311
PerkinElmer UV WinLab 6.4.0.973 / 2.02.11 Lambda 900 UV/VIS/NIR, May 23 2018 11:23:04

0
0
3350/servo 1800,8/servo 860,8/2
0
0
UV/VIS
1
1
1
CommonBeamDepol,RBeamAtt,SBeamAtt,uv/vis/nir detector, TDS WB InGaAs Detector
0
0
0
0
Program
Program
3350/servo 1800,8/servo 860,8/2
3350/0,2 1800,8/0,2 860,8/0,2
3350/0,2 1800,8/0,2 860,8/0,2
0
3350/1,00 1800,8/1,00
 
 
 
0
 
860,8
319,2
1800,8 860,8
Front
100
on
S:100 R:100
 
0
0
0
 
0
 
 
 
0
 
 
0
0
0
0
0
 
 
 
 
0
0


0
0
#HDR
-1
-1
#GR
nm
%T
1.0
0.0
2000,000000
-1,000000
1801
8
21,876014
0,293495
#DATA
2000,000000	21,876014
1999,000000	21,843899
1998,000000	21,783491
1997,000000	21,796627
1996,000000	21,767186
1995,000000	21,749224
1994,000000	21,684385
1993,000000	21,687355
1992,000000	21,623953
1991,000000	21,620356
1990,000000	21,573774
1989,000000	21,575415
1988,000000	21,519936
1987,000000	21,515680
1986,000000	21,446534
1985,000000	21,433817
1984,000000	21,388043
1983,000000	21,380143
1982,000000	21,334385
1981,000000	21,324895
1980,000000	21,267715
1979,000000	21,240188
1978,000000	21,204108
1977,000000	21,196874
1976,000000	21,143427
1975,000000	21,128682
1974,000000	21,082103
1973,000000	21,071345
1972,000000	21,023490
1971,000000	21,013074
1970,000000	20,939507
1969,000000	20,925355
1968,000000	20,885838
1967,000000	20,872896
1966,000000	20,811947
1965,000000	20,788553
1964,000000	20,726807
1963,000000	20,726421
1962,000000	20,671374
1961,000000	20,660196
1960,000000	20,625512
1959,000000	20,601112
1958,000000	20,552857
1957,000000	20,524290
1956,000000	20,480386
1955,000000	20,467495
1954,000000	20,408095
1953,000000	20,416098
1952,000000	20,378955
1951,000000	20,364106
1950,000000	20,307671
1949,000000	20,286968
1948,000000	20,231623
1947,000000	20,241587
1946,000000	20,207518
1945,000000	20,191418
1944,000000	20,135732
1943,000000	20,120535
1942,000000	20,088147
1941,000000	20,071481
1940,000000	20,005980
1939,000000	19,992856
1938,000000	19,947186
1937,000000	19,923322
1936,000000	19,881501
1935,000000	19,877829
1934,000000	19,833768
1933,000000	19,799873
1932,000000	19,761246
1931,000000	19,734722
1930,000000	19,683718
1929,000000	19,666805
1928,000000	19,636431
1927,000000	19,608978
1926,000000	19,576016
1925,000000	19,562315
1924,000000	19,511586
1923,000000	19,486149
1922,000000	19,449540
1921,000000	19,435261
1920,000000	19,378839
1919,000000	19,346294
1918,000000	19,323421
1917,000000	19,310866
1916,000000	19,265424
1915,000000	19,236673
1914,000000	19,191477
1913,000000	19,158710
1912,000000	19,106853
1911,000000	19,111998
1910,000000	19,079693
1909,000000	19,055611
1908,000000	19,011719
1907,000000	18,987615
1906,000000	18,960661
1905,000000	18,925469
1904,000000	18,882005
1903,000000	18,876348
1902,000000	18,847438
1901,000000	18,817503
1900,000000	18,784481
1899,000000	18,736888
1898,000000	18,690814
1897,000000	18,681384
1896,000000	18,658761
1895,000000	18,642105
1894,000000	18,602478
1893,000000	18,552129
1892,000000	18,517809
1891,000000	18,497995
1890,000000	18,465646
1889,000000	18,452520
1888,000000	18,424743
1887,000000	18,394335
1886,000000	18,357771
1885,000000	18,319315
1884,000000	18,291635
1883,000000	18,269581
1882,000000	18,236436
1881,000000	18,222853
1880,000000	18,185059
1879,000000	18,151795
1878,000000	18,121920
1877,000000	18,095337
1876,000000	18,056572
1875,000000	18,035195
1874,000000	18,002282
1873,000000	17,972393
1872,000000	17,941206
1871,000000	17,920042
1870,000000	17,888703
1869,000000	17,859779
1868,000000	17,830566
1867,000000	17,806401
1866,000000	17,772423
1865,000000	17,740683
1864,000000	17,704111
1863,000000	17,676296
1862,000000	17,643838
1861,000000	17,623002
1860,000000	17,602251
1859,000000	17,573994
1858,000000	17,543486
1857,000000	17,513534
1856,000000	17,494574
1855,000000	17,456599
1854,000000	17,417142
1853,000000	17,387535
1852,000000	17,351262
1851,000000	17,335648
1850,000000	17,318834
1849,000000	17,271992
1848,000000	17,242323
1847,000000	17,199349
1846,000000	17,168720
1845,000000	17,165767
1844,000000	17,156829
1843,000000	17,126453
1842,000000	17,073666
1841,000000	17,011147
1840,000000	16,978519
1839,000000	16,975853
1838,000000	16,977827
1837,000000	16,952897
1836,000000	16,912032
1835,000000	16,868290
1834,000000	16,842619
1833,000000	16,818001
1832,000000	16,798411
1831,000000	16,757682
1830,000000	16,735483
1829,000000	16,696001
1828,000000	16,672473
1827,000000	16,642092
1826,000000	16,618278
1825,000000	16,577548
1824,000000	16,547241
1823,000000	16,522228
1822,000000	16,493590
1821,000000	16,454970
1820,000000	16,421668
1819,000000	16,390159
1818,000000	16,400206
1817,000000	16,381758
1816,000000	16,337571
1815,000000	16,287731
1814,000000	16,264010
1813,000000	16,220613
1812,000000	16,200899
1811,000000	16,168444
1810,000000	16,156842
1809,000000	16,118948
1808,000000	16,090494
1807,000000	16,052092
1806,000000	16,039455
1805,000000	15,996069
1804,000000	15,979156
1803,000000	15,945957
1802,000000	15,927897
1801,000000	15,885005
1800,000000	15,227102
1799,000000	15,199117
1798,000000	15,172693
1797,000000	15,147716
1796,000000	15,120583
1795,000000	15,092392
1794,000000	15,066154
1793,000000	15,040440
1792,000000	15,014078
1791,000000	14,988550
1790,000000	14,964313
1789,000000	14,938828
1788,000000	14,908497
1787,000000	14,880000
1786,000000	14,852845
1785,000000	14,826572
1784,000000	14,798038
1783,000000	14,769511
1782,000000	14,739739
1781,000000	14,710919
1780,000000	14,682327
1779,000000	14,654667
1778,000000	14,627274
1777,000000	14,599843
1776,000000	14,570423
1775,000000	14,542682
1774,000000	14,510909
1773,000000	14,482728
1772,000000	14,455120
1771,000000	14,429124
1770,000000	14,403672
1769,000000	14,376788
1768,000000	14,350841
1767,000000	14,323456
1766,000000	14,295592
1765,000000	14,269889
1764,000000	14,243748
1763,000000	14,216825
1762,000000	14,189658
1761,000000	14,164313
1760,000000	14,138202
1759,000000	14,112128
1758,000000	14,085543
1757,000000	14,058266
1756,000000	14,031568
1755,000000	14,004664
1754,000000	13,980064
1753,000000	13,952844
1752,000000	13,925631
1751,000000	13,899244
1750,000000	13,873873
1749,000000	13,847845
1748,000000	13,819320
1747,000000	13,790421
1746,000000	13,761717
1745,000000	13,735991
1744,000000	13,709009
1743,000000	13,684460
1742,000000	13,662588
1741,000000	13,636146
1740,000000	13,607471
1739,000000	13,579568
1738,000000	13,551392
1737,000000	13,524633
1736,000000	13,498215
1735,000000	13,473165
1734,000000	13,447517
1733,000000	13,419839
1732,000000	13,392523
1731,000000	13,366694
1730,000000	13,340198
1729,000000	13,313842
1728,000000	13,288399
1727,000000	13,264078
1726,000000	13,238069
1725,000000	13,213535
1724,000000	13,189318
1723,000000	13,165342
1722,000000	13,138874
1721,000000	13,109089
1720,000000	13,081748
1719,000000	13,055373
1718,000000	13,028616
1717,000000	13,001693
1716,000000	12,976180
1715,000000	12,950669
1714,000000	12,924295
1713,000000	12,896577
1712,000000	12,870205
1711,000000	12,844293
1710,000000	12,817743
1709,000000	12,790892
1708,000000	12,764381
1707,000000	12,737750
1706,000000	12,709136
1705,000000	12,680924
1704,000000	12,653633
1703,000000	12,628274
1702,000000	12,602557
1701,000000	12,573734
1700,000000	12,546357
1699,000000	12,521437
1698,000000	12,494617
1697,000000	12,467834
1696,000000	12,441361
1695,000000	12,415404
1694,000000	12,390539
1693,000000	12,365601
1692,000000	12,339323
1691,000000	12,312859
1690,000000	12,286431
1689,000000	12,260943
1688,000000	12,235757
1687,000000	12,210998
1686,000000	12,185721
1685,000000	12,160833
1684,000000	12,134668
1683,000000	12,109745
1682,000000	12,086174
1681,000000	12,062611
1680,000000	12,037969
1679,000000	12,011766
1678,000000	11,986583
1677,000000	11,962033
1676,000000	11,938398
1675,000000	11,914099
1674,000000	11,889652
1673,000000	11,865696
1672,000000	11,842209
1671,000000	11,817880
1670,000000	11,791434
1669,000000	11,765731
1668,000000	11,742075
1667,000000	11,718752
1666,000000	11,696122
1665,000000	11,672637
1664,000000	11,648041
1663,000000	11,622924
1662,000000	11,598057
1661,000000	11,574026
1660,000000	11,549498
1659,000000	11,524002
1658,000000	11,498162
1657,000000	11,473032
1656,000000	11,449277
1655,000000	11,425167
1654,000000	11,400595
1653,000000	11,376469
1652,000000	11,352044
1651,000000	11,327147
1650,000000	11,301364
1649,000000	11,274966
1648,000000	11,249233
1647,000000	11,224152
1646,000000	11,199526
1645,000000	11,175330
1644,000000	11,151362
1643,000000	11,127138
1642,000000	11,102187
1641,000000	11,076775
1640,000000	11,052573
1639,000000	11,027839
1638,000000	11,002264
1637,000000	10,978427
1636,000000	10,953546
1635,000000	10,927637
1634,000000	10,902552
1633,000000	10,878426
1632,000000	10,854672
1631,000000	10,830454
1630,000000	10,806760
1629,000000	10,783415
1628,000000	10,759294
1627,000000	10,734996
1626,000000	10,710872
1625,000000	10,686606
1624,000000	10,662302
1623,000000	10,637421
1622,000000	10,612250
1621,000000	10,586538
1620,000000	10,560930
1619,000000	10,536767
1618,000000	10,512191
1617,000000	10,486819
1616,000000	10,462490
1615,000000	10,439014
1614,000000	10,414639
1613,000000	10,389849
1612,000000	10,364961
1611,000000	10,340281
1610,000000	10,315893
1609,000000	10,291705
1608,000000	10,267690
1607,000000	10,243319
1606,000000	10,218703
1605,000000	10,195040
1604,000000	10,171226
1603,000000	10,146838
1602,000000	10,123090
1601,000000	10,099652
1600,000000	10,076477
1599,000000	10,051843
1598,000000	10,026675
1597,000000	10,002053
1596,000000	9,977998
1595,000000	9,954212
1594,000000	9,930074
1593,000000	9,905621
1592,000000	9,881360
1591,000000	9,857765
1590,000000	9,834014
1589,000000	9,810290
1588,000000	9,786158
1587,000000	9,762951
1586,000000	9,739908
1585,000000	9,715832
1584,000000	9,689943
1583,000000	9,665750
1582,000000	9,642496
1581,000000	9,619648
1580,000000	9,596170
1579,000000	9,572410
1578,000000	9,549205
1577,000000	9,526814
1576,000000	9,504926
1575,000000	9,482143
1574,000000	9,458899
1573,000000	9,435239
1572,000000	9,411538
1571,000000	9,388063
1570,000000	9,365333
1569,000000	9,342666
1568,000000	9,319471
1567,000000	9,297141
1566,000000	9,275513
1565,000000	9,253657
1564,000000	9,231333
1563,000000	9,209833
1562,000000	9,187085
1561,000000	9,164803
1560,000000	9,142511
1559,000000	9,119679
1558,000000	9,096757
1557,000000	9,071966
1556,000000	9,049881
1555,000000	9,027900
1554,000000	9,005994
1553,000000	8,984419
1552,000000	8,962794
1551,000000	8,940421
1550,000000	8,918254
1549,000000	8,895050
1548,000000	8,871685
1547,000000	8,849503
1546,000000	8,827326
1545,000000	8,804787
1544,000000	8,782975
1543,000000	8,762913
1542,000000	8,741802
1541,000000	8,719664
1540,000000	8,698214
1539,000000	8,675803
1538,000000	8,653878
1537,000000	8,632464
1536,000000	8,609807
1535,000000	8,588404
1534,000000	8,567173
1533,000000	8,546331
1532,000000	8,525075
1531,000000	8,503600
1530,000000	8,482824
1529,000000	8,460466
1528,000000	8,439017
1527,000000	8,417282
1526,000000	8,396457
1525,000000	8,375145
1524,000000	8,353500
1523,000000	8,332482
1522,000000	8,310354
1521,000000	8,289262
1520,000000	8,268177
1519,000000	8,246860
1518,000000	8,226291
1517,000000	8,206444
1516,000000	8,186719
1515,000000	8,166142
1514,000000	8,145632
1513,000000	8,125212
1512,000000	8,105212
1511,000000	8,084337
1510,000000	8,063991
1509,000000	8,042815
1508,000000	8,022935
1507,000000	8,002393
1506,000000	7,982701
1505,000000	7,962188
1504,000000	7,943188
1503,000000	7,922452
1502,000000	7,902468
1501,000000	7,882896
1500,000000	7,863054
1499,000000	7,843769
1498,000000	7,824649
1497,000000	7,804733
1496,000000	7,785471
1495,000000	7,766241
1494,000000	7,746987
1493,000000	7,727424
1492,000000	7,706626
1491,000000	7,686875
1490,000000	7,667259
1489,000000	7,648071
1488,000000	7,630038
1487,000000	7,611406
1486,000000	7,592741
1485,000000	7,573469
1484,000000	7,553315
1483,000000	7,534672
1482,000000	7,515964
1481,000000	7,497392
1480,000000	7,478651
1479,000000	7,459757
1478,000000	7,441529
1477,000000	7,423421
1476,000000	7,406198
1475,000000	7,387521
1474,000000	7,368286
1473,000000	7,349341
1472,000000	7,331734
1471,000000	7,313617
1470,000000	7,296054
1469,000000	7,276640
1468,000000	7,257469
1467,000000	7,238568
1466,000000	7,219891
1465,000000	7,201968
1464,000000	7,188055
1463,000000	7,176655
1462,000000	7,155549
1461,000000	7,131413
1460,000000	7,112214
1459,000000	7,094681
1458,000000	7,076349
1457,000000	7,059046
1456,000000	7,042509
1455,000000	7,025102
1454,000000	7,007341
1453,000000	6,989426
1452,000000	6,971700
1451,000000	6,954118
1450,000000	6,937323
1449,000000	6,920251
1448,000000	6,903023
1447,000000	6,884368
1446,000000	6,867110
1445,000000	6,850572
1444,000000	6,835971
1443,000000	6,822329
1442,000000	6,804706
1441,000000	6,786705
1440,000000	6,768058
1439,000000	6,751307
1438,000000	6,734689
1437,000000	6,717771
1436,000000	6,701610
1435,000000	6,685785
1434,000000	6,669497
1433,000000	6,652943
1432,000000	6,636379
1431,000000	6,619651
1430,000000	6,602842
1429,000000	6,586515
1428,000000	6,570516
1427,000000	6,554490
1426,000000	6,538480
1425,000000	6,522620
1424,000000	6,506506
1423,000000	6,489441
1422,000000	6,472676
1421,000000	6,454845
1420,000000	6,437860
1419,000000	6,422479
1418,000000	6,406571
1417,000000	6,390491
1416,000000	6,374373
1415,000000	6,357295
1414,000000	6,341198
1413,000000	6,325414
1412,000000	6,309920
1411,000000	6,293716
1410,000000	6,277172
1409,000000	6,260908
1408,000000	6,245312
1407,000000	6,229510
1406,000000	6,213207
1405,000000	6,196435
1404,000000	6,179404
1403,000000	6,162738
1402,000000	6,146610
1401,000000	6,131009
1400,000000	6,115818
1399,000000	6,100772
1398,000000	6,086559
1397,000000	6,071639
1396,000000	6,056425
1395,000000	6,041923
1394,000000	6,026948
1393,000000	6,010819
1392,000000	5,994916
1391,000000	5,979129
1390,000000	5,963336
1389,000000	5,947436
1388,000000	5,931927
1387,000000	5,916256
1386,000000	5,900353
1385,000000	5,884857
1384,000000	5,869296
1383,000000	5,853765
1382,000000	5,838536
1381,000000	5,823523
1380,000000	5,808582
1379,000000	5,793920
1378,000000	5,778566
1377,000000	5,763656
1376,000000	5,750268
1375,000000	5,736366
1374,000000	5,722713
1373,000000	5,709660
1372,000000	5,695951
1371,000000	5,682184
1370,000000	5,667971
1369,000000	5,653068
1368,000000	5,638452
1367,000000	5,623777
1366,000000	5,608265
1365,000000	5,591013
1364,000000	5,574271
1363,000000	5,558291
1362,000000	5,541972
1361,000000	5,526150
1360,000000	5,510571
1359,000000	5,493220
1358,000000	5,474906
1357,000000	5,459053
1356,000000	5,443955
1355,000000	5,428569
1354,000000	5,414598
1353,000000	5,401263
1352,000000	5,387305
1351,000000	5,373897
1350,000000	5,359382
1349,000000	5,344400
1348,000000	5,334720
1347,000000	5,325560
1346,000000	5,315044
1345,000000	5,309040
1344,000000	5,304294
1343,000000	5,296347
1342,000000	5,284971
1341,000000	5,272233
1340,000000	5,259609
1339,000000	5,252049
1338,000000	5,240346
1337,000000	5,225288
1336,000000	5,218369
1335,000000	5,210104
1334,000000	5,194134
1333,000000	5,178601
1332,000000	5,165795
1331,000000	5,153022
1330,000000	5,139726
1329,000000	5,126988
1328,000000	5,114530
1327,000000	5,102016
1326,000000	5,089388
1325,000000	5,076968
1324,000000	5,065040
1323,000000	5,052944
1322,000000	5,043752
1321,000000	5,033717
1320,000000	5,016471
1319,000000	5,000903
1318,000000	4,988805
1317,000000	4,979792
1316,000000	4,969558
1315,000000	4,951933
1314,000000	4,936706
1313,000000	4,925100
1312,000000	4,913078
1311,000000	4,904172
1310,000000	4,893818
1309,000000	4,876157
1308,000000	4,861103
1307,000000	4,849494
1306,000000	4,837979
1305,000000	4,826499
1304,000000	4,815079
1303,000000	4,803523
1302,000000	4,791601
1301,000000	4,779936
1300,000000	4,768245
1299,000000	4,756971
1298,000000	4,745949
1297,000000	4,734974
1296,000000	4,723701
1295,000000	4,712235
1294,000000	4,701078
1293,000000	4,690325
1292,000000	4,685384
1291,000000	4,678152
1290,000000	4,668786
1289,000000	4,655219
1288,000000	4,643707
1287,000000	4,633584
1286,000000	4,623206
1285,000000	4,612704
1284,000000	4,607897
1283,000000	4,600050
1282,000000	4,590763
1281,000000	4,581251
1280,000000	4,571295
1279,000000	4,561640
1278,000000	4,552388
1277,000000	4,543336
1276,000000	4,533843
1275,000000	4,524484
1274,000000	4,514827
1273,000000	4,505037
1272,000000	4,495605
1271,000000	4,481123
1270,000000	4,470386
1269,000000	4,461152
1268,000000	4,451427
1267,000000	4,441490
1266,000000	4,435437
1265,000000	4,427672
1264,000000	4,412698
1263,000000	4,401937
1262,000000	4,392973
1261,000000	4,384219
1260,000000	4,375533
1259,000000	4,366768
1258,000000	4,358119
1257,000000	4,353242
1256,000000	4,345710
1255,000000	4,337831
1254,000000	4,329898
1253,000000	4,321238
1252,000000	4,312755
1251,000000	4,304657
1250,000000	4,296955
1249,000000	4,288937
1248,000000	4,281548
1247,000000	4,273640
1246,000000	4,265853
1245,000000	4,258602
1244,000000	4,250979
1243,000000	4,243191
1242,000000	4,235658
1241,000000	4,228878
1240,000000	4,221719
1239,000000	4,214400
1238,000000	4,206932
1237,000000	4,194061
1236,000000	4,186198
1235,000000	4,178754
1234,000000	4,174712
1233,000000	4,168283
1232,000000	4,155808
1231,000000	4,148078
1230,000000	4,141088
1229,000000	4,136806
1228,000000	4,124771
1227,000000	4,117436
1226,000000	4,112779
1225,000000	4,100964
1224,000000	4,093685
1223,000000	4,087360
1222,000000	4,080543
1221,000000	4,075862
1220,000000	4,068938
1219,000000	4,058503
1218,000000	4,052026
1217,000000	4,045454
1216,000000	4,039190
1215,000000	4,033050
1214,000000	4,027415
1213,000000	4,021845
1212,000000	4,015779
1211,000000	4,009952
1210,000000	4,003534
1209,000000	3,996938
1208,000000	3,991375
1207,000000	3,986340
1206,000000	3,980993
1205,000000	3,976079
1204,000000	3,971027
1203,000000	3,965110
1202,000000	3,959410
1201,000000	3,953875
1200,000000	3,949152
1199,000000	3,943940
1198,000000	3,938722
1197,000000	3,933672
1196,000000	3,928513
1195,000000	3,923088
1194,000000	3,917688
1193,000000	3,912746
1192,000000	3,907744
1191,000000	3,902332
1190,000000	3,891560
1189,000000	3,887313
1188,000000	3,882400
1187,000000	3,877222
1186,000000	3,872395
1185,000000	3,866946
1184,000000	3,862558
1183,000000	3,857731
1182,000000	3,852725
1181,000000	3,848633
1180,000000	3,844074
1179,000000	3,839276
1178,000000	3,834442
1177,000000	3,830062
1176,000000	3,826061
1175,000000	3,821418
1174,000000	3,817549
1173,000000	3,813801
1172,000000	3,809239
1171,000000	3,804713
1170,000000	3,800287
1169,000000	3,796171
1168,000000	3,791282
1167,000000	3,787181
1166,000000	3,783121
1165,000000	3,779104
1164,000000	3,775175
1163,000000	3,771371
1162,000000	3,767341
1161,000000	3,763658
1160,000000	3,760222
1159,000000	3,756959
1158,000000	3,753055
1157,000000	3,748903
1156,000000	3,745264
1155,000000	3,742120
1154,000000	3,738929
1153,000000	3,735405
1152,000000	3,731746
1151,000000	3,728252
1150,000000	3,725125
1149,000000	3,721712
1148,000000	3,718084
1147,000000	3,714800
1146,000000	3,711589
1145,000000	3,708712
1144,000000	3,705985
1143,000000	3,703044
1142,000000	3,700266
1141,000000	3,697381
1140,000000	3,694311
1139,000000	3,691766
1138,000000	3,689179
1137,000000	3,686911
1136,000000	3,684386
1135,000000	3,682001
1134,000000	3,679194
1133,000000	3,676905
1132,000000	3,674169
1131,000000	3,671774
1130,000000	3,669606
1129,000000	3,667505
1128,000000	3,665453
1127,000000	3,663487
1126,000000	3,661299
1125,000000	3,659020
1124,000000	3,656883
1123,000000	3,655163
1122,000000	3,653636
1121,000000	3,651811
1120,000000	3,650009
1119,000000	3,648659
1118,000000	3,647217
1117,000000	3,645854
1116,000000	3,644487
1115,000000	3,642930
1114,000000	3,641284
1113,000000	3,639603
1112,000000	3,638699
1111,000000	3,637859
1110,000000	3,637056
1109,000000	3,636143
1108,000000	3,635169
1107,000000	3,634411
1106,000000	3,633766
1105,000000	3,633137
1104,000000	3,632172
1103,000000	3,631766
1102,000000	3,631519
1101,000000	3,630667
1100,000000	3,630038
1099,000000	3,629612
1098,000000	3,628777
1097,000000	3,628220
1096,000000	3,628024
1095,000000	3,627931
1094,000000	3,627925
1093,000000	3,627754
1092,000000	3,627826
1091,000000	3,627561
1090,000000	3,627700
1089,000000	3,627850
1088,000000	3,627883
1087,000000	3,628504
1086,000000	3,628925
1085,000000	3,629764
1084,000000	3,630636
1083,000000	3,631393
1082,000000	3,632280
1081,000000	3,633407
1080,000000	3,633858
1079,000000	3,634352
1078,000000	3,634895
1077,000000	3,636118
1076,000000	3,637461
1075,000000	3,639303
1074,000000	3,640526
1073,000000	3,641257
1072,000000	3,641914
1071,000000	3,643037
1070,000000	3,644481
1069,000000	3,645850
1068,000000	3,647492
1067,000000	3,649502
1066,000000	3,651406
1065,000000	3,653035
1064,000000	3,654996
1063,000000	3,657102
1062,000000	3,658687
1061,000000	3,659879
1060,000000	3,661504
1059,000000	3,663447
1058,000000	3,665957
1057,000000	3,668440
1056,000000	3,670327
1055,000000	3,672223
1054,000000	3,674745
1053,000000	3,677088
1052,000000	3,678642
1051,000000	3,680333
1050,000000	3,682574
1049,000000	3,685415
1048,000000	3,688130
1047,000000	3,690575
1046,000000	3,692614
1045,000000	3,694610
1044,000000	3,697069
1043,000000	3,699591
1042,000000	3,702423
1041,000000	3,705246
1040,000000	3,707362
1039,000000	3,709079
1038,000000	3,711387
1037,000000	3,714278
1036,000000	3,717277
1035,000000	3,720045
1034,000000	3,722796
1033,000000	3,725497
1032,000000	3,728527
1031,000000	3,731177
1030,000000	3,734075
1029,000000	3,736999
1028,000000	3,739637
1027,000000	3,742018
1026,000000	3,744826
1025,000000	3,747831
1024,000000	3,750768
1023,000000	3,753925
1022,000000	3,757129
1021,000000	3,760081
1020,000000	3,763155
1019,000000	3,766691
1018,000000	3,770119
1017,000000	3,773024
1016,000000	3,775830
1015,000000	3,778382
1014,000000	3,781073
1013,000000	3,784316
1012,000000	3,787530
1011,000000	3,790475
1010,000000	3,794546
1009,000000	3,800088
1008,000000	3,804693
1007,000000	3,808098
1006,000000	3,810842
1005,000000	3,813165
1004,000000	3,815699
1003,000000	3,818206
1002,000000	3,821424
1001,000000	3,824825
1000,000000	3,827916
999,000000	3,831252
998,000000	3,835258
997,000000	3,839295
996,000000	3,842312
995,000000	3,845940
994,000000	3,849381
993,000000	3,853424
992,000000	3,856933
991,000000	3,860616
990,000000	3,865082
989,000000	3,869441
988,000000	3,873318
987,000000	3,876764
986,000000	3,880107
985,000000	3,883928
984,000000	3,887673
983,000000	3,891652
982,000000	3,896339
981,000000	3,900801
980,000000	3,904306
979,000000	3,907877
978,000000	3,912338
977,000000	3,917022
976,000000	3,920754
975,000000	3,925481
974,000000	3,930908
973,000000	3,935660
972,000000	3,940026
971,000000	3,944346
970,000000	3,948739
969,000000	3,954744
968,000000	3,959238
967,000000	3,963064
966,000000	3,968189
965,000000	3,973291
964,000000	3,978436
963,000000	3,983655
962,000000	3,988178
961,000000	3,993125
960,000000	3,998139
959,000000	4,002922
958,000000	4,008673
957,000000	4,014171
956,000000	4,019613
955,000000	4,024214
954,000000	4,030177
953,000000	4,035977
952,000000	4,041953
951,000000	4,047235
950,000000	4,051974
949,000000	4,058367
948,000000	4,063899
947,000000	4,070011
946,000000	4,074923
945,000000	4,080813
944,000000	4,085776
943,000000	4,092374
942,000000	4,098374
941,000000	4,103933
940,000000	4,110050
939,000000	4,117267
938,000000	4,122006
937,000000	4,128476
936,000000	4,134432
935,000000	4,140630
934,000000	4,146264
933,000000	4,153121
932,000000	4,158343
931,000000	4,163313
930,000000	4,170307
929,000000	4,177526
928,000000	4,183173
927,000000	4,188420
926,000000	4,195504
925,000000	4,201066
924,000000	4,206931
923,000000	4,212693
922,000000	4,219669
921,000000	4,225281
920,000000	4,230796
919,000000	4,234373
918,000000	4,242683
917,000000	4,248613
916,000000	4,254584
915,000000	4,261714
914,000000	4,266844
913,000000	4,271927
912,000000	4,277964
911,000000	4,283740
910,000000	4,289367
909,000000	4,295709
908,000000	4,300681
907,000000	4,307044
906,000000	4,313301
905,000000	4,318095
904,000000	4,324414
903,000000	4,330465
902,000000	4,336132
901,000000	4,343943
900,000000	4,347791
899,000000	4,350443
898,000000	4,355294
897,000000	4,364098
896,000000	4,368279
895,000000	4,371142
894,000000	4,380005
893,000000	4,385062
892,000000	4,389173
891,000000	4,396772
890,000000	4,401084
889,000000	4,406928
888,000000	4,411760
887,000000	4,414276
886,000000	4,422261
885,000000	4,428322
884,000000	4,431139
883,000000	4,437087
882,000000	4,441921
881,000000	4,447040
880,000000	4,454210
879,000000	4,458788
878,000000	4,466478
877,000000	4,469887
876,000000	4,477282
875,000000	4,482852
874,000000	4,486420
873,000000	4,495178
872,000000	4,500155
871,000000	4,506474
870,000000	4,510344
869,000000	4,513171
868,000000	4,520566
867,000000	4,524305
866,000000	4,534389
865,000000	4,540891
864,000000	4,545360
863,000000	4,554452
862,000000	4,559829
861,000000	4,568779
860,000000	5,114280
859,000000	5,067228
858,000000	5,069695
857,000000	5,087639
856,000000	5,094690
855,000000	5,101667
854,000000	5,107782
853,000000	5,107622
852,000000	5,125104
851,000000	5,125580
850,000000	5,136936
849,000000	5,128065
848,000000	5,133157
847,000000	5,148782
846,000000	5,151873
845,000000	5,161368
844,000000	5,153431
843,000000	5,173728
842,000000	5,166528
841,000000	5,177401
840,000000	5,183980
839,000000	5,191129
838,000000	5,198817
837,000000	5,195292
836,000000	5,204074
835,000000	5,210208
834,000000	5,207620
833,000000	5,208698
832,000000	5,210526
831,000000	5,219652
830,000000	5,225470
829,000000	5,227950
828,000000	5,233968
827,000000	5,238246
826,000000	5,240032
825,000000	5,249890
824,000000	5,251780
823,000000	5,255816
822,000000	5,254697
821,000000	5,261960
820,000000	5,267106
819,000000	5,271570
818,000000	5,274251
817,000000	5,275700
816,000000	5,279902
815,000000	5,286452
814,000000	5,288743
813,000000	5,295253
812,000000	5,297113
811,000000	5,299365
810,000000	5,300591
809,000000	5,305699
808,000000	5,310049
807,000000	5,314694
806,000000	5,318100
805,000000	5,317813
804,000000	5,325493
803,000000	5,327273
802,000000	5,332451
801,000000	5,334860
800,000000	5,338508
799,000000	5,341938
798,000000	5,348863
797,000000	5,348597
796,000000	5,350982
795,000000	5,354037
794,000000	5,362117
793,000000	5,363936
792,000000	5,367050
791,000000	5,369717
790,000000	5,372549
789,000000	5,374387
788,000000	5,378591
787,000000	5,383509
786,000000	5,387352
785,000000	5,393956
784,000000	5,395536
783,000000	5,400229
782,000000	5,402905
781,000000	5,405905
780,000000	5,407130
779,000000	5,409982
778,000000	5,418746
777,000000	5,425802
776,000000	5,426189
775,000000	5,433324
774,000000	5,439340
773,000000	5,442243
772,000000	5,443392
771,000000	5,445070
770,000000	5,450145
769,000000	5,458703
768,000000	5,462102
767,000000	5,462504
766,000000	5,468586
765,000000	5,473507
764,000000	5,478690
763,000000	5,483853
762,000000	5,484254
761,000000	5,485962
760,000000	5,486705
759,000000	5,491801
758,000000	5,497452
757,000000	5,500628
756,000000	5,503554
755,000000	5,505906
754,000000	5,506424
753,000000	5,508092
752,000000	5,509570
751,000000	5,513206
750,000000	5,516717
749,000000	5,517410
748,000000	5,517547
747,000000	5,520100
746,000000	5,521566
745,000000	5,522584
744,000000	5,524927
743,000000	5,525892
742,000000	5,524767
741,000000	5,524468
740,000000	5,527062
739,000000	5,528355
738,000000	5,527944
737,000000	5,526915
736,000000	5,527034
735,000000	5,527302
734,000000	5,528200
733,000000	5,528276
732,000000	5,527501
731,000000	5,529235
730,000000	5,529511
729,000000	5,530401
728,000000	5,533192
727,000000	5,532885
726,000000	5,532934
725,000000	5,535448
724,000000	5,536903
723,000000	5,536682
722,000000	5,535358
721,000000	5,534474
720,000000	5,535524
719,000000	5,537442
718,000000	5,539309
717,000000	5,541972
716,000000	5,542875
715,000000	5,542776
714,000000	5,543210
713,000000	5,544443
712,000000	5,545636
711,000000	5,547403
710,000000	5,548066
709,000000	5,549145
708,000000	5,552012
707,000000	5,553462
706,000000	5,552759
705,000000	5,552758
704,000000	5,553558
703,000000	5,552224
702,000000	5,551625
701,000000	5,553909
700,000000	5,554189
699,000000	5,552399
698,000000	5,551566
697,000000	5,551643
696,000000	5,551570
695,000000	5,549441
694,000000	5,547265
693,000000	5,544131
692,000000	5,542397
691,000000	5,541593
690,000000	5,538880
689,000000	5,534919
688,000000	5,532677
687,000000	5,531055
686,000000	5,527970
685,000000	5,525152
684,000000	5,521714
683,000000	5,518633
682,000000	5,513604
681,000000	5,511608
680,000000	5,509783
679,000000	5,506295
678,000000	5,504102
677,000000	5,501207
676,000000	5,497095
675,000000	5,492186
674,000000	5,487592
673,000000	5,485654
672,000000	5,482367
671,000000	5,478067
670,000000	5,476301
669,000000	5,474200
668,000000	5,471919
667,000000	5,469167
666,000000	5,467430
665,000000	5,465661
664,000000	5,463159
663,000000	5,462686
662,000000	5,460068
661,000000	5,456675
660,000000	5,455346
659,000000	5,453606
658,000000	5,448577
657,000000	5,449175
656,000000	5,447890
655,000000	5,446439
654,000000	5,441738
653,000000	5,438946
652,000000	5,437462
651,000000	5,432213
650,000000	5,428168
649,000000	5,427037
648,000000	5,421133
647,000000	5,419031
646,000000	5,416771
645,000000	5,410489
644,000000	5,401973
643,000000	5,398674
642,000000	5,394775
641,000000	5,388495
640,000000	5,382133
639,000000	5,377492
638,000000	5,371402
637,000000	5,366485
636,000000	5,358691
635,000000	5,352563
634,000000	5,346440
633,000000	5,341113
632,000000	5,333563
631,000000	5,328282
630,000000	5,322684
629,000000	5,315954
628,000000	5,311431
627,000000	5,306130
626,000000	5,301047
625,000000	5,297943
624,000000	5,292973
623,000000	5,288215
622,000000	5,283482
621,000000	5,280521
620,000000	5,275720
619,000000	5,268575
618,000000	5,268358
617,000000	5,265474
616,000000	5,261673
615,000000	5,259333
614,000000	5,255017
613,000000	5,252003
612,000000	5,247609
611,000000	5,244707
610,000000	5,241806
609,000000	5,236439
608,000000	5,230715
607,000000	5,228296
606,000000	5,227017
605,000000	5,219175
604,000000	5,214887
603,000000	5,211052
602,000000	5,207398
601,000000	5,198405
600,000000	5,193885
599,000000	5,187859
598,000000	5,181293
597,000000	5,177720
596,000000	5,171567
595,000000	5,167184
594,000000	5,160762
593,000000	5,152835
592,000000	5,150079
591,000000	5,145854
590,000000	5,139895
589,000000	5,137284
588,000000	5,131450
587,000000	5,126613
586,000000	5,124632
585,000000	5,122121
584,000000	5,119001
583,000000	5,117036
582,000000	5,113451
581,000000	5,110640
580,000000	5,107582
579,000000	5,107226
578,000000	5,105644
577,000000	5,106853
576,000000	5,104242
575,000000	5,103790
574,000000	5,099229
573,000000	5,100129
572,000000	5,099690
571,000000	5,096408
570,000000	5,096960
569,000000	5,097223
568,000000	5,098609
567,000000	5,091550
566,000000	5,093741
565,000000	5,089891
564,000000	5,089698
563,000000	5,087766
562,000000	5,076811
561,000000	5,074139
560,000000	5,071573
559,000000	5,070765
558,000000	5,069877
557,000000	5,070125
556,000000	5,068383
555,000000	5,069682
554,000000	5,071667
553,000000	5,072262
552,000000	5,073106
551,000000	5,074736
550,000000	5,075067
549,000000	5,075969
548,000000	5,078490
547,000000	5,082215
546,000000	5,087087
545,000000	5,091348
544,000000	5,092901
543,000000	5,096697
542,000000	5,101463
541,000000	5,103010
540,000000	5,107397
539,000000	5,111196
538,000000	5,114103
537,000000	5,117444
536,000000	5,118746
535,000000	5,121120
534,000000	5,123746
533,000000	5,124177
532,000000	5,126640
531,000000	5,127274
530,000000	5,130296
529,000000	5,130535
528,000000	5,131897
527,000000	5,135697
526,000000	5,137184
525,000000	5,141103
524,000000	5,145103
523,000000	5,149720
522,000000	5,153740
521,000000	5,159468
520,000000	5,165758
519,000000	5,170659
518,000000	5,180228
517,000000	5,191221
516,000000	5,201457
515,000000	5,211055
514,000000	5,220410
513,000000	5,230781
512,000000	5,237830
511,000000	5,245275
510,000000	5,253307
509,000000	5,260724
508,000000	5,269183
507,000000	5,272522
506,000000	5,278517
505,000000	5,281805
504,000000	5,285537
503,000000	5,289420
502,000000	5,289329
501,000000	5,294784
500,000000	5,297087
499,000000	5,296596
498,000000	5,300395
497,000000	5,304654
496,000000	5,310412
495,000000	5,316739
494,000000	5,323646
493,000000	5,330570
492,000000	5,338224
491,000000	5,342065
490,000000	5,349705
489,000000	5,359633
488,000000	5,370068
487,000000	5,377728
486,000000	5,386583
485,000000	5,392264
484,000000	5,393522
483,000000	5,395825
482,000000	5,398342
481,000000	5,404695
480,000000	5,412445
479,000000	5,420126
478,000000	5,427769
477,000000	5,433380
476,000000	5,434641
475,000000	5,440902
474,000000	5,447406
473,000000	5,454729
472,000000	5,464411
471,000000	5,472282
470,000000	5,480176
469,000000	5,485025
468,000000	5,491248
467,000000	5,494664
466,000000	5,499908
465,000000	5,501626
464,000000	5,497912
463,000000	5,494636
462,000000	5,491450
461,000000	5,487246
460,000000	5,479951
459,000000	5,470293
458,000000	5,458597
457,000000	5,450247
456,000000	5,440920
455,000000	5,431692
454,000000	5,423099
453,000000	5,415517
452,000000	5,407022
451,000000	5,397328
450,000000	5,387689
449,000000	5,375959
448,000000	5,362393
447,000000	5,349160
446,000000	5,334582
445,000000	5,313973
444,000000	5,292139
443,000000	5,274267
442,000000	5,257786
441,000000	5,243765
440,000000	5,229932
439,000000	5,215973
438,000000	5,202053
437,000000	5,186778
436,000000	5,171234
435,000000	5,154943
434,000000	5,139705
433,000000	5,119643
432,000000	5,092864
431,000000	5,064163
430,000000	5,034072
429,000000	5,000920
428,000000	4,957766
427,000000	4,908359
426,000000	4,854438
425,000000	4,788741
424,000000	4,712678
423,000000	4,622462
422,000000	4,516759
421,000000	4,395093
420,000000	4,259918
419,000000	4,113765
418,000000	3,958487
417,000000	3,804182
416,000000	3,654268
415,000000	3,507091
414,000000	3,368546
413,000000	3,247000
412,000000	3,139282
411,000000	3,046692
410,000000	2,967671
409,000000	2,900505
408,000000	2,846689
407,000000	2,801713
406,000000	2,767362
405,000000	2,738400
404,000000	2,712788
403,000000	2,695169
402,000000	2,681312
401,000000	2,666383
400,000000	2,650295
399,000000	2,637909
398,000000	2,628680
397,000000	2,616367
396,000000	2,604357
395,000000	2,591490
394,000000	2,578748
393,000000	2,564470
392,000000	2,551215
391,000000	2,538354
390,000000	2,521798
389,000000	2,507757
388,000000	2,497451
387,000000	2,486098
386,000000	2,474448
385,000000	2,468314
384,000000	2,461098
383,000000	2,454767
382,000000	2,451125
381,000000	2,446315
380,000000	2,442926
379,000000	2,383488
378,000000	2,310620
377,000000	2,292528
376,000000	2,296743
375,000000	2,306308
374,000000	2,313428
373,000000	2,309495
372,000000	2,312223
371,000000	2,314761
370,000000	2,312491
369,000000	2,304909
368,000000	2,296849
367,000000	2,289885
366,000000	2,277231
365,000000	2,268788
364,000000	2,248001
363,000000	2,236783
362,000000	2,223890
361,000000	2,200742
360,000000	2,177780
359,000000	2,152758
358,000000	2,132872
357,000000	2,109363
356,000000	2,076906
355,000000	2,045246
354,000000	2,019231
353,000000	1,987542
352,000000	1,961357
351,000000	1,928651
350,000000	1,902430
349,000000	1,868361
348,000000	1,836282
347,000000	1,806467
346,000000	1,784886
345,000000	1,752750
344,000000	1,730198
343,000000	1,707201
342,000000	1,679745
341,000000	1,657501
340,000000	1,640358
339,000000	1,615676
338,000000	1,594284
337,000000	1,576902
336,000000	1,555224
335,000000	1,535974
334,000000	1,524027
333,000000	1,506350
332,000000	1,487593
331,000000	1,471101
330,000000	1,452081
329,000000	1,431692
328,000000	1,413518
327,000000	1,394797
326,000000	1,374856
325,000000	1,357594
324,000000	1,337628
323,000000	1,317450
322,000000	1,301552
321,000000	1,288328
320,000000	1,267990
319,000000	1,269996
318,000000	1,255066
317,000000	1,241736
316,000000	1,230862
315,000000	1,223033
314,000000	1,209259
313,000000	1,200332
312,000000	1,192814
311,000000	1,183370
310,000000	1,177383
309,000000	1,171165
308,000000	1,163889
307,000000	1,162389
306,000000	1,159786
305,000000	1,160197
304,000000	1,153487
303,000000	1,156531
302,000000	1,154776
301,000000	1,153029
300,000000	1,149187
299,000000	1,145223
298,000000	1,140554
297,000000	1,131742
296,000000	1,127353
295,000000	1,116390
294,000000	1,107741
293,000000	1,099904
292,000000	1,090825
291,000000	1,076244
290,000000	1,060902
289,000000	1,042196
288,000000	1,021208
287,000000	0,995035
286,000000	0,969802
285,000000	0,935867
284,000000	0,896784
283,000000	0,852769
282,000000	0,812399
281,000000	0,763869
280,000000	0,713759
279,000000	0,662790
278,000000	0,611963
277,000000	0,557678
276,000000	0,509154
275,000000	0,462971
274,000000	0,425489
273,000000	0,389798
272,000000	0,359607
271,000000	0,341304
270,000000	0,325051
269,000000	0,316445
268,000000	0,312157
267,000000	0,307442
266,000000	0,302271
265,000000	0,301064
264,000000	0,297466
263,000000	0,293864
262,000000	0,294671
261,000000	0,293582
260,000000	0,293495
259,000000	0,297273
258,000000	0,298952
257,000000	0,299242
256,000000	0,298736
255,000000	0,297394
254,000000	0,296669
253,000000	0,297260
252,000000	0,297663
251,000000	0,298145
250,000000	0,298241
249,000000	0,297405
248,000000	0,295454
247,000000	0,295902
246,000000	0,298252
245,000000	0,296291
244,000000	0,297954
243,000000	0,298029
242,000000	0,299357
241,000000	0,298915
240,000000	0,303376
239,000000	0,305533
238,000000	0,305242
237,000000	0,305775
236,000000	0,308102
235,000000	0,309603
234,000000	0,310347
233,000000	0,310979
232,000000	0,311549
231,000000	0,313599
230,000000	0,312273
229,000000	0,311907
228,000000	0,310871
227,000000	0,310691
226,000000	0,311573
225,000000	0,311573
224,000000	0,310871
223,000000	0,312904
222,000000	0,312383
221,000000	0,310620
220,000000	0,310042
219,000000	0,311020
218,000000	0,310834
217,000000	0,313005
216,000000	0,312846
215,000000	0,313680
214,000000	0,313874
213,000000	0,316274
212,000000	0,319211
211,000000	0,320350
210,000000	0,320753
209,000000	0,325081
208,000000	0,326524
207,000000	0,328463
206,000000	0,333494
205,000000	0,336497
204,000000	0,339718
203,000000	0,341488
202,000000	0,345770
201,000000	0,349694
200,000000	0,355233
