PE UV       SUBTECH     SPECTRUM    ASCII       PEDS        4.00        
   -1
Q2dotzoom.Sample.asc
22/03/23
16:38:28.00
22/03/23
16:38:28.00
Administrator

350,000000
1
Lambda 1050
1050L1808311
PerkinElmer UV WinLab 6.4.0.973 / 2.02.11 Lambda 900 UV/VIS/NIR, May 23 2018 11:23:04

0
0
3350/servo 1800,8/servo 860,8/1
0
0
UV/VIS
1
1
1
CommonBeamDepol,RBeamAtt,SBeamAtt,uv/vis/nir detector, TDS WB InGaAs Detector
0
0
0
0
Program
 
0
3350/0,2 1800,8/0,2 860,8/0,2
0
0
0
 
 
 
0
 
860,8
319,2
1800,8 860,8
Front
100
on
S:100 R:100
 
0
0
0
 
0
 
 
 
0
 
 
0
0
0
0
0
 
 
 
 
0
0


0
0
#HDR
-1
-1
#GR
nm
%T
1.0
0.0
600,000000
-0,500000
501
8
21,320435
5,007586
#DATA
600,000000	13,812561
599,500000	13,823300
599,000000	13,833052
598,500000	13,846674
598,000000	13,854380
597,500000	13,864774
597,000000	13,876031
596,500000	13,885432
596,000000	13,899171
595,500000	13,909388
595,000000	13,926703
594,500000	13,937373
594,000000	13,954764
593,500000	13,966621
593,000000	13,982984
592,500000	13,993313
592,000000	14,009503
591,500000	14,023718
591,000000	14,034368
590,500000	14,052015
590,000000	14,064468
589,500000	14,072684
589,000000	14,076809
588,500000	14,100972
588,000000	14,119650
587,500000	14,135521
587,000000	14,147640
586,500000	14,168699
586,000000	14,179395
585,500000	14,197728
585,000000	14,212022
584,500000	14,228781
584,000000	14,254975
583,500000	14,267486
583,000000	14,288667
582,500000	14,313185
582,000000	14,332396
581,500000	14,360043
581,000000	14,382659
580,500000	14,408994
580,000000	14,432531
579,500000	14,457514
579,000000	14,486694
578,500000	14,511406
578,000000	14,534655
577,500000	14,564363
577,000000	14,600991
576,500000	14,629484
576,000000	14,663705
575,500000	14,698051
575,000000	14,737750
574,500000	14,774451
574,000000	14,816084
573,500000	14,859812
573,000000	14,900464
572,500000	14,940978
572,000000	14,991679
571,500000	15,045122
571,000000	15,088065
570,500000	15,133868
570,000000	15,174584
569,500000	15,229523
569,000000	15,280827
568,500000	15,330862
568,000000	15,379833
567,500000	15,432544
567,000000	15,487335
566,500000	15,547136
566,000000	15,603686
565,500000	15,656608
565,000000	15,712215
564,500000	15,766471
564,000000	15,829136
563,500000	15,883606
563,000000	15,934486
562,500000	15,976931
562,000000	16,019447
561,500000	16,078574
561,000000	16,133386
560,500000	16,186519
560,000000	16,242661
559,500000	16,296760
559,000000	16,351090
558,500000	16,406886
558,000000	16,458012
557,500000	16,507540
557,000000	16,558192
556,500000	16,609682
556,000000	16,662822
555,500000	16,718853
555,000000	16,773681
554,500000	16,825756
554,000000	16,880321
553,500000	16,931122
553,000000	16,989002
552,500000	17,046479
552,000000	17,099293
551,500000	17,156753
551,000000	17,213558
550,500000	17,270262
550,000000	17,333866
549,500000	17,394449
549,000000	17,450492
548,500000	17,513772
548,000000	17,580886
547,500000	17,646934
547,000000	17,707045
546,500000	17,770253
546,000000	17,839005
545,500000	17,911561
545,000000	17,985793
544,500000	18,058498
544,000000	18,130795
543,500000	18,203328
543,000000	18,275317
542,500000	18,348156
542,000000	18,424934
541,500000	18,503714
541,000000	18,579724
540,500000	18,654273
540,000000	18,724759
539,500000	18,804717
539,000000	18,881029
538,500000	18,951544
538,000000	19,026969
537,500000	19,096040
537,000000	19,164422
536,500000	19,233240
536,000000	19,301946
535,500000	19,371915
535,000000	19,437114
534,500000	19,501579
534,000000	19,565282
533,500000	19,631043
533,000000	19,694697
532,500000	19,753935
532,000000	19,813877
531,500000	19,868604
531,000000	19,917261
530,500000	19,971165
530,000000	20,026766
529,500000	20,080256
529,000000	20,132749
528,500000	20,182776
528,000000	20,234234
527,500000	20,284870
527,000000	20,332521
526,500000	20,381726
526,000000	20,428362
525,500000	20,473835
525,000000	20,516768
524,500000	20,561708
524,000000	20,613908
523,500000	20,662925
523,000000	20,708796
522,500000	20,756601
522,000000	20,795624
521,500000	20,833257
521,000000	20,874966
520,500000	20,917563
520,000000	20,961289
519,500000	21,003469
519,000000	21,044477
518,500000	21,083578
518,000000	21,121695
517,500000	21,152405
517,000000	21,184914
516,500000	21,209289
516,000000	21,233124
515,500000	21,260151
515,000000	21,278321
514,500000	21,291917
514,000000	21,303729
513,500000	21,310241
513,000000	21,316279
512,500000	21,320296
512,000000	21,320435
511,500000	21,316174
511,000000	21,314740
510,500000	21,309371
510,000000	21,296334
509,500000	21,278495
509,000000	21,261130
508,500000	21,250717
508,000000	21,236012
507,500000	21,221500
507,000000	21,208506
506,500000	21,183698
506,000000	21,164974
505,500000	21,137002
505,000000	21,111606
504,500000	21,091014
504,000000	21,069710
503,500000	21,054606
503,000000	21,031379
502,500000	21,004526
502,000000	20,986878
501,500000	20,968505
501,000000	20,959474
500,500000	20,940515
500,000000	20,916223
499,500000	20,899983
499,000000	20,872896
498,500000	20,847373
498,000000	20,820601
497,500000	20,796414
497,000000	20,773759
496,500000	20,739441
496,000000	20,701563
495,500000	20,662283
495,000000	20,624879
494,500000	20,588817
494,000000	20,539459
493,500000	20,488954
493,000000	20,441945
492,500000	20,386197
492,000000	20,319425
491,500000	20,261412
491,000000	20,193468
490,500000	20,132210
490,000000	20,067850
489,500000	19,998201
489,000000	19,931819
488,500000	19,845873
488,000000	19,775902
487,500000	19,700163
487,000000	19,615849
486,500000	19,539390
486,000000	19,461955
485,500000	19,388702
485,000000	19,319850
484,500000	19,247013
484,000000	19,184148
483,500000	19,113526
483,000000	19,042817
482,500000	18,976379
482,000000	18,904978
481,500000	18,856316
481,000000	18,816505
480,500000	18,774469
480,000000	18,720631
479,500000	18,649541
479,000000	18,574874
478,500000	18,491697
478,000000	18,411981
477,500000	18,335774
477,000000	18,256706
476,500000	18,171391
476,000000	18,072490
475,500000	17,984858
475,000000	17,898874
474,500000	17,805348
474,000000	17,704060
473,500000	17,599411
473,000000	17,503505
472,500000	17,395770
472,000000	17,288118
471,500000	17,180950
471,000000	17,076710
470,500000	16,966387
470,000000	16,870235
469,500000	16,760610
469,000000	16,659616
468,500000	16,563418
468,000000	16,462007
467,500000	16,360166
467,000000	16,261352
466,500000	16,167533
466,000000	16,088103
465,500000	16,004507
465,000000	15,916357
464,500000	15,844750
464,000000	15,768807
463,500000	15,694751
463,000000	15,623430
462,500000	15,561303
462,000000	15,491329
461,500000	15,422211
461,000000	15,361565
460,500000	15,299235
460,000000	15,242872
459,500000	15,184887
459,000000	15,123865
458,500000	15,065354
458,000000	15,001575
457,500000	14,959129
457,000000	14,913210
456,500000	14,867853
456,000000	14,817008
455,500000	14,770448
455,000000	14,738602
454,500000	14,706574
454,000000	14,669120
453,500000	14,646280
453,000000	14,627069
452,500000	14,592686
452,000000	14,591525
451,500000	14,587440
451,000000	14,581140
450,500000	14,595485
450,000000	14,600741
449,500000	14,624812
449,000000	14,643197
448,500000	14,670583
448,000000	14,701430
447,500000	14,729530
447,000000	14,762692
446,500000	14,808714
446,000000	14,852736
445,500000	14,886718
445,000000	14,927517
444,500000	14,972216
444,000000	15,015751
443,500000	15,065522
443,000000	15,128970
442,500000	15,174250
442,000000	15,230294
441,500000	15,286270
441,000000	15,347230
440,500000	15,415101
440,000000	15,475705
439,500000	15,538848
439,000000	15,612287
438,500000	15,676994
438,000000	15,757574
437,500000	15,831365
437,000000	15,908537
436,500000	15,990506
436,000000	16,074366
435,500000	16,157663
435,000000	16,232595
434,500000	16,320725
434,000000	16,383261
433,500000	16,468775
433,000000	16,518597
432,500000	16,577198
432,000000	16,630577
431,500000	16,670917
431,000000	16,695614
430,500000	16,717485
430,000000	16,728478
429,500000	16,726771
429,000000	16,715064
428,500000	16,688010
428,000000	16,652963
427,500000	16,606416
427,000000	16,553409
426,500000	16,475918
426,000000	16,379910
425,500000	16,270077
425,000000	16,140620
424,500000	15,989222
424,000000	15,815025
423,500000	15,617504
423,000000	15,400078
422,500000	15,154178
422,000000	14,889268
421,500000	14,606558
421,000000	14,291958
420,500000	13,960726
420,000000	13,626752
419,500000	13,276404
419,000000	12,927219
418,500000	12,571674
418,000000	12,222545
417,500000	11,876835
417,000000	11,529834
416,500000	11,199637
416,000000	10,879394
415,500000	10,575671
415,000000	10,289130
414,500000	10,021833
414,000000	9,776579
413,500000	9,540897
413,000000	9,330155
412,500000	9,137673
412,000000	8,963123
411,500000	8,807010
411,000000	8,668579
410,500000	8,541832
410,000000	8,435783
409,500000	8,334716
409,000000	8,245117
408,500000	8,176962
408,000000	8,106601
407,500000	8,043764
407,000000	7,991482
406,500000	7,941976
406,000000	7,900678
405,500000	7,868555
405,000000	7,827966
404,500000	7,794958
404,000000	7,773113
403,500000	7,744329
403,000000	7,724187
402,500000	7,701952
402,000000	7,684514
401,500000	7,671634
401,000000	7,649258
400,500000	7,623696
400,000000	7,608247
399,500000	7,591250
399,000000	7,568918
398,500000	7,549782
398,000000	7,531618
397,500000	7,512776
397,000000	7,492864
396,500000	7,465536
396,000000	7,442569
395,500000	7,424652
395,000000	7,401287
394,500000	7,375602
394,000000	7,352520
393,500000	7,326946
393,000000	7,301128
392,500000	7,274371
392,000000	7,247000
391,500000	7,221214
391,000000	7,201374
390,500000	7,181457
390,000000	7,155056
389,500000	7,130424
389,000000	7,109766
388,500000	7,087491
388,000000	7,071233
387,500000	7,057878
387,000000	7,039233
386,500000	7,019662
386,000000	7,009802
385,500000	7,001076
385,000000	6,984162
384,500000	6,971670
384,000000	6,965037
383,500000	6,959390
383,000000	6,952112
382,500000	6,944763
382,000000	6,938332
381,500000	6,932810
381,000000	6,928980
380,500000	6,927537
380,000000	6,926010
379,500000	6,920723
379,000000	6,926995
378,500000	6,923087
378,000000	6,892332
377,500000	6,866689
377,000000	6,857216
376,500000	6,867928
376,000000	6,867589
375,500000	6,885707
375,000000	6,906865
374,500000	6,886022
374,000000	6,877534
373,500000	6,887829
373,000000	6,889986
372,500000	6,874666
372,000000	6,857873
371,500000	6,852655
371,000000	6,844040
370,500000	6,829927
370,000000	6,821252
369,500000	6,798800
369,000000	6,774752
368,500000	6,758886
368,000000	6,738796
367,500000	6,709095
367,000000	6,669532
366,500000	6,657036
366,000000	6,640223
365,500000	6,615685
365,000000	6,570742
364,500000	6,536746
364,000000	6,516643
363,500000	6,487972
363,000000	6,443710
362,500000	6,402525
362,000000	6,362408
361,500000	6,327841
361,000000	6,271872
360,500000	6,218111
360,000000	6,178877
359,500000	6,134831
359,000000	6,082173
358,500000	6,035009
358,000000	5,977433
357,500000	5,906347
357,000000	5,855011
356,500000	5,799779
356,000000	5,745989
355,500000	5,692082
355,000000	5,641617
354,500000	5,574650
354,000000	5,504183
353,500000	5,439603
353,000000	5,392131
352,500000	5,320769
352,000000	5,258021
351,500000	5,187200
351,000000	5,130665
350,500000	5,081836
350,000000	5,007586
