PE UV       SUBTECH     SPECTRUM    ASCII       PEDS        4.00        
   -1
Q2dot.Sample.asc
22/03/23
15:55:43.00
22/03/23
15:55:43.00
Administrator

200,000000
1
Lambda 1050
1050L1808311
PerkinElmer UV WinLab 6.4.0.973 / 2.02.11 Lambda 900 UV/VIS/NIR, May 23 2018 11:23:04

0
0
3350/servo 1800,8/servo 860,8/2
0
0
UV/VIS
1
1
1
CommonBeamDepol,RBeamAtt,SBeamAtt,uv/vis/nir detector, TDS WB InGaAs Detector
0
0
0
0
Program
Program
3350/servo 1800,8/servo 860,8/2
3350/0,2 1800,8/0,2 860,8/0,2
3350/0,2 1800,8/0,2 860,8/0,2
0
3350/1,00 1800,8/1,00
 
 
 
0
 
860,8
319,2
1800,8 860,8
Front
100
on
S:100 R:100
 
0
0
0
 
0
 
 
 
0
 
 
0
0
0
0
0
 
 
 
 
0
0


0
0
#HDR
-1
-1
#GR
nm
%T
1.0
0.0
2000,000000
-1,000000
1801
8
24,762062
0,190934
#DATA
2000,000000	22,414501
1999,000000	22,389249
1998,000000	22,344923
1997,000000	22,341788
1996,000000	22,294502
1995,000000	22,277049
1994,000000	22,229358
1993,000000	22,234029
1992,000000	22,189157
1991,000000	22,183221
1990,000000	22,135356
1989,000000	22,123025
1988,000000	22,070776
1987,000000	22,072414
1986,000000	22,017351
1985,000000	22,005981
1984,000000	21,953495
1983,000000	21,963419
1982,000000	21,907103
1981,000000	21,897239
1980,000000	21,858168
1979,000000	21,845853
1978,000000	21,790770
1977,000000	21,790127
1976,000000	21,744281
1975,000000	21,735365
1974,000000	21,685037
1973,000000	21,665775
1972,000000	21,638576
1971,000000	21,625506
1970,000000	21,565060
1969,000000	21,557049
1968,000000	21,512403
1967,000000	21,504139
1966,000000	21,452681
1965,000000	21,450869
1964,000000	21,397958
1963,000000	21,391998
1962,000000	21,345611
1961,000000	21,335259
1960,000000	21,289281
1959,000000	21,276613
1958,000000	21,225371
1957,000000	21,215905
1956,000000	21,160300
1955,000000	21,154461
1954,000000	21,102426
1953,000000	21,093968
1952,000000	21,062192
1951,000000	21,051359
1950,000000	20,998005
1949,000000	20,970116
1948,000000	20,926858
1947,000000	20,915347
1946,000000	20,849648
1945,000000	20,843730
1944,000000	20,792397
1943,000000	20,786905
1942,000000	20,734754
1941,000000	20,736689
1940,000000	20,668099
1939,000000	20,658125
1938,000000	20,612512
1937,000000	20,600205
1936,000000	20,564227
1935,000000	20,545994
1934,000000	20,510708
1933,000000	20,486295
1932,000000	20,440621
1931,000000	20,431083
1930,000000	20,369602
1929,000000	20,351402
1928,000000	20,308906
1927,000000	20,297069
1926,000000	20,266905
1925,000000	20,253217
1924,000000	20,212824
1923,000000	20,178008
1922,000000	20,144040
1921,000000	20,141156
1920,000000	20,080290
1919,000000	20,049331
1918,000000	20,019042
1917,000000	19,983556
1916,000000	19,936943
1915,000000	19,914254
1914,000000	19,879201
1913,000000	19,850632
1912,000000	19,818155
1911,000000	19,800039
1910,000000	19,741880
1909,000000	19,729003
1908,000000	19,691683
1907,000000	19,642963
1906,000000	19,597198
1905,000000	19,570748
1904,000000	19,520534
1903,000000	19,501458
1902,000000	19,483801
1901,000000	19,449067
1900,000000	19,386189
1899,000000	19,356895
1898,000000	19,313667
1897,000000	19,290221
1896,000000	19,270990
1895,000000	19,256595
1894,000000	19,203316
1893,000000	19,161749
1892,000000	19,105501
1891,000000	19,069561
1890,000000	19,043249
1889,000000	19,023558
1888,000000	18,983351
1887,000000	18,961680
1886,000000	18,916542
1885,000000	18,874293
1884,000000	18,822076
1883,000000	18,798156
1882,000000	18,771056
1881,000000	18,735268
1880,000000	18,691936
1879,000000	18,662610
1878,000000	18,629928
1877,000000	18,608090
1876,000000	18,556117
1875,000000	18,511656
1874,000000	18,483840
1873,000000	18,455037
1872,000000	18,424544
1871,000000	18,395413
1870,000000	18,352707
1869,000000	18,327349
1868,000000	18,289473
1867,000000	18,240437
1866,000000	18,201936
1865,000000	18,159311
1864,000000	18,114559
1863,000000	18,077249
1862,000000	18,027635
1861,000000	17,991269
1860,000000	17,957154
1859,000000	17,901503
1858,000000	17,865857
1857,000000	17,843260
1856,000000	17,818518
1855,000000	17,781954
1854,000000	17,716838
1853,000000	17,669010
1852,000000	17,641366
1851,000000	17,611769
1850,000000	17,583623
1849,000000	17,551091
1848,000000	17,507774
1847,000000	17,444126
1846,000000	17,409810
1845,000000	17,410934
1844,000000	17,386747
1843,000000	17,333857
1842,000000	17,286737
1841,000000	17,213396
1840,000000	17,168257
1839,000000	17,156463
1838,000000	17,152441
1837,000000	17,111314
1836,000000	17,066850
1835,000000	17,020077
1834,000000	16,992655
1833,000000	16,978573
1832,000000	16,948396
1831,000000	16,885892
1830,000000	16,849032
1829,000000	16,794415
1828,000000	16,768671
1827,000000	16,747037
1826,000000	16,720634
1825,000000	16,673589
1824,000000	16,636782
1823,000000	16,594903
1822,000000	16,559334
1821,000000	16,498793
1820,000000	16,457355
1819,000000	16,440636
1818,000000	16,435613
1817,000000	16,402856
1816,000000	16,358321
1815,000000	16,293308
1814,000000	16,276295
1813,000000	16,243934
1812,000000	16,218990
1811,000000	16,173903
1810,000000	16,141264
1809,000000	16,096537
1808,000000	16,079797
1807,000000	16,046401
1806,000000	16,002484
1805,000000	15,962064
1804,000000	15,943780
1803,000000	15,903854
1802,000000	15,888868
1801,000000	15,836661
1800,000000	15,606479
1799,000000	15,573888
1798,000000	15,542118
1797,000000	15,511007
1796,000000	15,478863
1795,000000	15,444498
1794,000000	15,413616
1793,000000	15,382094
1792,000000	15,349301
1791,000000	15,317986
1790,000000	15,286944
1789,000000	15,255151
1788,000000	15,219872
1787,000000	15,186759
1786,000000	15,155062
1785,000000	15,124453
1784,000000	15,093690
1783,000000	15,061160
1782,000000	15,027430
1781,000000	14,995817
1780,000000	14,962919
1779,000000	14,930290
1778,000000	14,897559
1777,000000	14,865491
1776,000000	14,831516
1775,000000	14,798799
1774,000000	14,762350
1773,000000	14,730053
1772,000000	14,698437
1771,000000	14,669153
1770,000000	14,639734
1769,000000	14,611633
1768,000000	14,581754
1767,000000	14,550789
1766,000000	14,520365
1765,000000	14,490417
1764,000000	14,459936
1763,000000	14,429588
1762,000000	14,399567
1761,000000	14,370234
1760,000000	14,339997
1759,000000	14,308068
1758,000000	14,278383
1757,000000	14,251567
1756,000000	14,222243
1755,000000	14,192139
1754,000000	14,164347
1753,000000	14,135520
1752,000000	14,106707
1751,000000	14,077932
1750,000000	14,049841
1749,000000	14,023146
1748,000000	13,994505
1747,000000	13,965142
1746,000000	13,934135
1745,000000	13,906829
1744,000000	13,880199
1743,000000	13,853724
1742,000000	13,826268
1741,000000	13,799381
1740,000000	13,771284
1739,000000	13,743271
1738,000000	13,715444
1737,000000	13,687326
1736,000000	13,660008
1735,000000	13,634631
1734,000000	13,609000
1733,000000	13,581895
1732,000000	13,554821
1731,000000	13,529349
1730,000000	13,503092
1729,000000	13,476865
1728,000000	13,452364
1727,000000	13,428423
1726,000000	13,403582
1725,000000	13,378506
1724,000000	13,353863
1723,000000	13,329920
1722,000000	13,303457
1721,000000	13,274324
1720,000000	13,248806
1719,000000	13,225079
1718,000000	13,200160
1717,000000	13,174843
1716,000000	13,151187
1715,000000	13,127296
1714,000000	13,103102
1713,000000	13,076980
1712,000000	13,051178
1711,000000	13,026757
1710,000000	13,002380
1709,000000	12,978037
1708,000000	12,954383
1707,000000	12,931196
1706,000000	12,905070
1705,000000	12,877947
1704,000000	12,852458
1703,000000	12,829261
1702,000000	12,806386
1701,000000	12,783382
1700,000000	12,760004
1699,000000	12,736916
1698,000000	12,712007
1697,000000	12,685869
1696,000000	12,660843
1695,000000	12,638747
1694,000000	12,617654
1693,000000	12,595347
1692,000000	12,572589
1691,000000	12,549175
1690,000000	12,525683
1689,000000	12,503496
1688,000000	12,481737
1687,000000	12,459595
1686,000000	12,436813
1685,000000	12,414431
1684,000000	12,390871
1683,000000	12,368099
1682,000000	12,347367
1681,000000	12,326762
1680,000000	12,305768
1679,000000	12,284571
1678,000000	12,263592
1677,000000	12,242910
1676,000000	12,221994
1675,000000	12,200861
1674,000000	12,180041
1673,000000	12,160180
1672,000000	12,140688
1671,000000	12,119315
1670,000000	12,096487
1669,000000	12,075030
1668,000000	12,055250
1667,000000	12,035115
1666,000000	12,014893
1665,000000	11,994271
1664,000000	11,973203
1663,000000	11,950907
1662,000000	11,928287
1661,000000	11,906972
1660,000000	11,885040
1659,000000	11,862373
1658,000000	11,839713
1657,000000	11,816634
1656,000000	11,794152
1655,000000	11,771419
1654,000000	11,748793
1653,000000	11,726842
1652,000000	11,704926
1651,000000	11,681503
1650,000000	11,656261
1649,000000	11,631325
1648,000000	11,608575
1647,000000	11,586835
1646,000000	11,564630
1645,000000	11,541819
1644,000000	11,517632
1643,000000	11,493074
1642,000000	11,468945
1641,000000	11,444920
1640,000000	11,420263
1639,000000	11,395403
1638,000000	11,370969
1637,000000	11,348213
1636,000000	11,324513
1635,000000	11,300456
1634,000000	11,276194
1633,000000	11,251983
1632,000000	11,228631
1631,000000	11,205156
1630,000000	11,181637
1629,000000	11,157650
1628,000000	11,132879
1627,000000	11,108052
1626,000000	11,083524
1625,000000	11,059894
1624,000000	11,036344
1623,000000	11,011828
1622,000000	10,987008
1621,000000	10,961173
1620,000000	10,936015
1619,000000	10,911760
1618,000000	10,886389
1617,000000	10,860775
1616,000000	10,836457
1615,000000	10,811717
1614,000000	10,786283
1613,000000	10,760899
1612,000000	10,734708
1611,000000	10,709077
1610,000000	10,684670
1609,000000	10,660237
1608,000000	10,635991
1607,000000	10,610685
1606,000000	10,585004
1605,000000	10,559378
1604,000000	10,534763
1603,000000	10,509688
1602,000000	10,484789
1601,000000	10,459969
1600,000000	10,435290
1599,000000	10,409469
1598,000000	10,383566
1597,000000	10,357643
1596,000000	10,331014
1595,000000	10,304901
1594,000000	10,279016
1593,000000	10,253266
1592,000000	10,227471
1591,000000	10,202122
1590,000000	10,177536
1589,000000	10,151832
1588,000000	10,125034
1587,000000	10,098581
1586,000000	10,073342
1585,000000	10,047863
1584,000000	10,021955
1583,000000	9,995889
1582,000000	9,970321
1581,000000	9,944489
1580,000000	9,918726
1579,000000	9,892421
1578,000000	9,866810
1577,000000	9,841577
1576,000000	9,816280
1575,000000	9,790187
1574,000000	9,764092
1573,000000	9,737563
1572,000000	9,710888
1571,000000	9,684446
1570,000000	9,658654
1569,000000	9,632921
1568,000000	9,607110
1567,000000	9,581598
1566,000000	9,555524
1565,000000	9,529342
1564,000000	9,501859
1563,000000	9,476025
1562,000000	9,450336
1561,000000	9,425698
1560,000000	9,400470
1559,000000	9,374688
1558,000000	9,348582
1557,000000	9,321968
1556,000000	9,296124
1555,000000	9,271094
1554,000000	9,246022
1553,000000	9,220923
1552,000000	9,196008
1551,000000	9,170442
1550,000000	9,145208
1549,000000	9,119943
1548,000000	9,093727
1547,000000	9,069041
1546,000000	9,050791
1545,000000	9,027686
1544,000000	9,003250
1543,000000	8,978267
1542,000000	8,953837
1541,000000	8,929868
1540,000000	8,906138
1539,000000	8,881549
1538,000000	8,856630
1537,000000	8,832682
1536,000000	8,809330
1535,000000	8,786297
1534,000000	8,762988
1533,000000	8,739835
1532,000000	8,716387
1531,000000	8,693520
1530,000000	8,670777
1529,000000	8,647705
1528,000000	8,624403
1527,000000	8,602070
1526,000000	8,580663
1525,000000	8,559451
1524,000000	8,536517
1523,000000	8,513065
1522,000000	8,489296
1521,000000	8,466235
1520,000000	8,445355
1519,000000	8,424584
1518,000000	8,404338
1517,000000	8,383094
1516,000000	8,363126
1515,000000	8,342416
1514,000000	8,322818
1513,000000	8,303078
1512,000000	8,283537
1511,000000	8,263335
1510,000000	8,243782
1509,000000	8,223388
1508,000000	8,204207
1507,000000	8,186416
1506,000000	8,168803
1505,000000	8,150239
1504,000000	8,132759
1503,000000	8,114087
1502,000000	8,095964
1501,000000	8,078131
1500,000000	8,061875
1499,000000	8,044236
1498,000000	8,027572
1497,000000	8,010555
1496,000000	7,993408
1495,000000	7,976742
1494,000000	7,960284
1493,000000	7,943625
1492,000000	7,927209
1491,000000	7,911277
1490,000000	7,895027
1489,000000	7,879549
1488,000000	7,864329
1487,000000	7,848275
1486,000000	7,832877
1485,000000	7,817196
1484,000000	7,800605
1483,000000	7,786935
1482,000000	7,773315
1481,000000	7,759246
1480,000000	7,744526
1479,000000	7,729060
1478,000000	7,714365
1477,000000	7,701743
1476,000000	7,688391
1475,000000	7,673230
1474,000000	7,659018
1473,000000	7,645070
1472,000000	7,631427
1471,000000	7,623112
1470,000000	7,615965
1469,000000	7,603092
1468,000000	7,590958
1467,000000	7,579120
1466,000000	7,567410
1465,000000	7,555682
1464,000000	7,547716
1463,000000	7,543077
1462,000000	7,528959
1461,000000	7,511190
1460,000000	7,498984
1459,000000	7,488390
1458,000000	7,476872
1457,000000	7,466774
1456,000000	7,457389
1455,000000	7,447326
1454,000000	7,437234
1453,000000	7,427515
1452,000000	7,418480
1451,000000	7,408284
1450,000000	7,399274
1449,000000	7,390202
1448,000000	7,380129
1447,000000	7,368675
1446,000000	7,359499
1445,000000	7,352008
1444,000000	7,346371
1443,000000	7,342226
1442,000000	7,333149
1441,000000	7,322603
1440,000000	7,311331
1439,000000	7,303060
1438,000000	7,295548
1437,000000	7,287735
1436,000000	7,280048
1435,000000	7,271905
1434,000000	7,264238
1433,000000	7,257568
1432,000000	7,251144
1431,000000	7,243837
1430,000000	7,236238
1429,000000	7,228668
1428,000000	7,222990
1427,000000	7,216819
1426,000000	7,210107
1425,000000	7,203930
1424,000000	7,197392
1423,000000	7,190492
1422,000000	7,183894
1421,000000	7,176916
1420,000000	7,170762
1419,000000	7,167190
1418,000000	7,162693
1417,000000	7,157173
1416,000000	7,149941
1415,000000	7,142575
1414,000000	7,136792
1413,000000	7,132233
1412,000000	7,127434
1411,000000	7,122414
1410,000000	7,116642
1409,000000	7,111437
1408,000000	7,107554
1407,000000	7,103730
1406,000000	7,099203
1405,000000	7,094916
1404,000000	7,090477
1403,000000	7,085906
1402,000000	7,081261
1401,000000	7,076240
1400,000000	7,071248
1399,000000	7,066129
1398,000000	7,061433
1397,000000	7,056797
1396,000000	7,051532
1395,000000	7,047217
1394,000000	7,043927
1393,000000	7,040166
1392,000000	7,036567
1391,000000	7,033401
1390,000000	7,029885
1389,000000	7,026409
1388,000000	7,022767
1387,000000	7,018514
1386,000000	7,014066
1385,000000	7,009772
1384,000000	7,006168
1383,000000	7,002770
1382,000000	6,999878
1381,000000	6,997114
1380,000000	6,994399
1379,000000	6,991008
1378,000000	6,987264
1377,000000	6,982933
1376,000000	6,978388
1375,000000	6,973114
1374,000000	6,967858
1373,000000	6,963571
1372,000000	6,960668
1371,000000	6,958794
1370,000000	6,956634
1369,000000	6,954735
1368,000000	6,953305
1367,000000	6,951277
1366,000000	6,948531
1365,000000	6,944787
1364,000000	6,941817
1363,000000	6,939399
1362,000000	6,937113
1361,000000	6,935278
1360,000000	6,933315
1359,000000	6,930762
1358,000000	6,928180
1357,000000	6,925679
1356,000000	6,923200
1355,000000	6,920734
1354,000000	6,918647
1353,000000	6,916398
1352,000000	6,913976
1351,000000	6,911860
1350,000000	6,909899
1349,000000	6,908356
1348,000000	6,907304
1347,000000	6,905388
1346,000000	6,903330
1345,000000	6,901375
1344,000000	6,899269
1343,000000	6,896922
1342,000000	6,895149
1341,000000	6,893328
1340,000000	6,891514
1339,000000	6,897625
1338,000000	6,895970
1337,000000	6,889653
1336,000000	6,896069
1335,000000	6,894493
1334,000000	6,888209
1333,000000	6,887329
1332,000000	6,886791
1331,000000	6,886273
1330,000000	6,885773
1329,000000	6,885717
1328,000000	6,886202
1327,000000	6,886425
1326,000000	6,886423
1325,000000	6,887019
1324,000000	6,887891
1323,000000	6,888735
1322,000000	6,889766
1321,000000	6,898362
1320,000000	6,898028
1319,000000	6,894983
1318,000000	6,896738
1317,000000	6,906422
1316,000000	6,913715
1315,000000	6,908781
1314,000000	6,907085
1313,000000	6,910316
1312,000000	6,913351
1311,000000	6,924616
1310,000000	6,933015
1309,000000	6,929748
1308,000000	6,929469
1307,000000	6,933340
1306,000000	6,937444
1305,000000	6,942267
1304,000000	6,946828
1303,000000	6,952392
1302,000000	6,957616
1301,000000	6,962968
1300,000000	6,968035
1299,000000	6,973413
1298,000000	6,979207
1297,000000	6,984824
1296,000000	6,990390
1295,000000	6,996360
1294,000000	7,002211
1293,000000	7,009128
1292,000000	7,024587
1291,000000	7,036077
1290,000000	7,043739
1289,000000	7,042319
1288,000000	7,045391
1287,000000	7,051779
1286,000000	7,059079
1285,000000	7,067086
1284,000000	7,083972
1283,000000	7,096188
1282,000000	7,104252
1281,000000	7,112631
1280,000000	7,121886
1279,000000	7,131833
1278,000000	7,142765
1277,000000	7,153831
1276,000000	7,164099
1275,000000	7,174271
1274,000000	7,184191
1273,000000	7,195474
1272,000000	7,207147
1271,000000	7,210107
1270,000000	7,220456
1269,000000	7,233665
1268,000000	7,246231
1267,000000	7,259536
1266,000000	7,283741
1265,000000	7,300475
1264,000000	7,304859
1263,000000	7,317201
1262,000000	7,332503
1261,000000	7,348138
1260,000000	7,364100
1259,000000	7,379485
1258,000000	7,395085
1257,000000	7,423599
1256,000000	7,443852
1255,000000	7,462322
1254,000000	7,479993
1253,000000	7,497027
1252,000000	7,514129
1251,000000	7,532393
1250,000000	7,550049
1249,000000	7,567624
1248,000000	7,585211
1247,000000	7,603534
1246,000000	7,622038
1245,000000	7,640872
1244,000000	7,659828
1243,000000	7,677650
1242,000000	7,695045
1241,000000	7,714484
1240,000000	7,733824
1239,000000	7,753850
1238,000000	7,773628
1237,000000	7,783083
1236,000000	7,801954
1235,000000	7,823339
1234,000000	7,844800
1233,000000	7,880291
1232,000000	7,894390
1231,000000	7,916194
1230,000000	7,952770
1229,000000	7,977126
1228,000000	7,989515
1227,000000	8,012447
1226,000000	8,037189
1225,000000	8,064548
1224,000000	8,090028
1223,000000	8,114924
1222,000000	8,152383
1221,000000	8,179909
1220,000000	8,205689
1219,000000	8,222195
1218,000000	8,247796
1217,000000	8,274100
1216,000000	8,302036
1215,000000	8,328002
1214,000000	8,355556
1213,000000	8,382306
1212,000000	8,407926
1211,000000	8,433900
1210,000000	8,459375
1209,000000	8,483908
1208,000000	8,509129
1207,000000	8,535486
1206,000000	8,560710
1205,000000	8,585834
1204,000000	8,611087
1203,000000	8,636386
1202,000000	8,661570
1201,000000	8,687102
1200,000000	8,713101
1199,000000	8,739872
1198,000000	8,763875
1197,000000	8,789799
1196,000000	8,816135
1195,000000	8,841973
1194,000000	8,866304
1193,000000	8,893005
1192,000000	8,920138
1191,000000	8,946750
1190,000000	8,967619
1189,000000	9,005852
1188,000000	9,038032
1187,000000	9,068254
1186,000000	9,096757
1185,000000	9,124810
1184,000000	9,150953
1183,000000	9,177587
1182,000000	9,205163
1181,000000	9,233416
1180,000000	9,260089
1179,000000	9,286462
1178,000000	9,312661
1177,000000	9,340369
1176,000000	9,366922
1175,000000	9,394434
1174,000000	9,421497
1173,000000	9,449670
1172,000000	9,478078
1171,000000	9,504212
1170,000000	9,530534
1169,000000	9,557341
1168,000000	9,583833
1167,000000	9,610973
1166,000000	9,637464
1165,000000	9,665224
1164,000000	9,693310
1163,000000	9,720681
1162,000000	9,748663
1161,000000	9,776955
1160,000000	9,804740
1159,000000	9,832866
1158,000000	9,861223
1157,000000	9,890115
1156,000000	9,918035
1155,000000	9,946767
1154,000000	9,975835
1153,000000	10,005515
1152,000000	10,032637
1151,000000	10,061240
1150,000000	10,089932
1149,000000	10,119626
1148,000000	10,149424
1147,000000	10,179839
1146,000000	10,210712
1145,000000	10,244470
1144,000000	10,276643
1143,000000	10,307360
1142,000000	10,339363
1141,000000	10,371576
1140,000000	10,404178
1139,000000	10,437153
1138,000000	10,470478
1137,000000	10,504412
1136,000000	10,538879
1135,000000	10,572324
1134,000000	10,606157
1133,000000	10,641068
1132,000000	10,676615
1131,000000	10,712923
1130,000000	10,749098
1129,000000	10,785704
1128,000000	10,822687
1127,000000	10,859570
1126,000000	10,896464
1125,000000	10,933529
1124,000000	10,971802
1123,000000	11,011650
1122,000000	11,051130
1121,000000	11,091321
1120,000000	11,131449
1119,000000	11,172230
1118,000000	11,212849
1117,000000	11,254171
1116,000000	11,295730
1115,000000	11,338351
1114,000000	11,380699
1113,000000	11,423415
1112,000000	11,467001
1111,000000	11,511293
1110,000000	11,556225
1109,000000	11,602029
1108,000000	11,647526
1107,000000	11,694407
1106,000000	11,742604
1105,000000	11,789327
1104,000000	11,835440
1103,000000	11,882923
1102,000000	11,931986
1101,000000	11,981525
1100,000000	12,032139
1099,000000	12,083289
1098,000000	12,132430
1097,000000	12,179337
1096,000000	12,228650
1095,000000	12,279659
1094,000000	12,329993
1093,000000	12,379888
1092,000000	12,430348
1091,000000	12,481929
1090,000000	12,533654
1089,000000	12,585813
1088,000000	12,638204
1087,000000	12,689934
1086,000000	12,742173
1085,000000	12,797204
1084,000000	12,851199
1083,000000	12,904502
1082,000000	12,959196
1081,000000	13,011826
1080,000000	13,062854
1079,000000	13,114280
1078,000000	13,166625
1077,000000	13,220586
1076,000000	13,275598
1075,000000	13,329935
1074,000000	13,383536
1073,000000	13,436170
1072,000000	13,488667
1071,000000	13,541561
1070,000000	13,593942
1069,000000	13,645573
1068,000000	13,696546
1067,000000	13,748236
1066,000000	13,800257
1065,000000	13,852559
1064,000000	13,905182
1063,000000	13,958271
1062,000000	14,010563
1061,000000	14,059964
1060,000000	14,109244
1059,000000	14,161224
1058,000000	14,213238
1057,000000	14,263111
1056,000000	14,311571
1055,000000	14,360181
1054,000000	14,409301
1053,000000	14,457362
1052,000000	14,504616
1051,000000	14,552542
1050,000000	14,602761
1049,000000	14,652847
1048,000000	14,701171
1047,000000	14,748077
1046,000000	14,794974
1045,000000	14,842048
1044,000000	14,889815
1043,000000	14,937619
1042,000000	14,983419
1041,000000	15,028135
1040,000000	15,072086
1039,000000	15,116283
1038,000000	15,161933
1037,000000	15,208200
1036,000000	15,255027
1035,000000	15,302554
1034,000000	15,350246
1033,000000	15,397170
1032,000000	15,444261
1031,000000	15,492140
1030,000000	15,540444
1029,000000	15,587334
1028,000000	15,633265
1027,000000	15,680472
1026,000000	15,729332
1025,000000	15,777819
1024,000000	15,826394
1023,000000	15,874836
1022,000000	15,923568
1021,000000	15,973085
1020,000000	16,023814
1019,000000	16,077156
1018,000000	16,129525
1017,000000	16,181742
1016,000000	16,233499
1015,000000	16,284762
1014,000000	16,339048
1013,000000	16,393376
1012,000000	16,447437
1011,000000	16,501996
1010,000000	16,556924
1009,000000	16,611705
1008,000000	16,665779
1007,000000	16,722190
1006,000000	16,780929
1005,000000	16,839654
1004,000000	16,897849
1003,000000	16,957874
1002,000000	17,020399
1001,000000	17,082373
1000,000000	17,142443
999,000000	17,203793
998,000000	17,266423
997,000000	17,326943
996,000000	17,387511
995,000000	17,450951
994,000000	17,513959
993,000000	17,577076
992,000000	17,641080
991,000000	17,707068
990,000000	17,774694
989,000000	17,842815
988,000000	17,909749
987,000000	17,976258
986,000000	18,043420
985,000000	18,109531
984,000000	18,175608
983,000000	18,243287
982,000000	18,310879
981,000000	18,377770
980,000000	18,443870
979,000000	18,508927
978,000000	18,575397
977,000000	18,642933
976,000000	18,708015
975,000000	18,772409
974,000000	18,838315
973,000000	18,901340
972,000000	18,966766
971,000000	19,032036
970,000000	19,097305
969,000000	19,162601
968,000000	19,225303
967,000000	19,285874
966,000000	19,346216
965,000000	19,405506
964,000000	19,464544
963,000000	19,525119
962,000000	19,586858
961,000000	19,647131
960,000000	19,704725
959,000000	19,761395
958,000000	19,818854
957,000000	19,872256
956,000000	19,926556
955,000000	19,982242
954,000000	20,036942
953,000000	20,091072
952,000000	20,143528
951,000000	20,194615
950,000000	20,246134
949,000000	20,296839
948,000000	20,347323
947,000000	20,398151
946,000000	20,447637
945,000000	20,496070
944,000000	20,547674
943,000000	20,596624
942,000000	20,648062
941,000000	20,697411
940,000000	20,747926
939,000000	20,796709
938,000000	20,843807
937,000000	20,890830
936,000000	20,935162
935,000000	20,981871
934,000000	21,030428
933,000000	21,079979
932,000000	21,128103
931,000000	21,173690
930,000000	21,221387
929,000000	21,270012
928,000000	21,317148
927,000000	21,365126
926,000000	21,409590
925,000000	21,457066
924,000000	21,506875
923,000000	21,557937
922,000000	21,607636
921,000000	21,658680
920,000000	21,709497
919,000000	21,755419
918,000000	21,807656
917,000000	21,861453
916,000000	21,914271
915,000000	21,965610
914,000000	22,018045
913,000000	22,073120
912,000000	22,125347
911,000000	22,180288
910,000000	22,240113
909,000000	22,294309
908,000000	22,351223
907,000000	22,406490
906,000000	22,464363
905,000000	22,519824
904,000000	22,576999
903,000000	22,637509
902,000000	22,689793
901,000000	22,747872
900,000000	22,805914
899,000000	22,863283
898,000000	22,917402
897,000000	22,976654
896,000000	23,035326
895,000000	23,089020
894,000000	23,144477
893,000000	23,193955
892,000000	23,246515
891,000000	23,296913
890,000000	23,350980
889,000000	23,408814
888,000000	23,462380
887,000000	23,515805
886,000000	23,568548
885,000000	23,615230
884,000000	23,659180
883,000000	23,708936
882,000000	23,756358
881,000000	23,805260
880,000000	23,846817
879,000000	23,892732
878,000000	23,931466
877,000000	23,975588
876,000000	24,017316
875,000000	24,060873
874,000000	24,090394
873,000000	24,126761
872,000000	24,161344
871,000000	24,197892
870,000000	24,233222
869,000000	24,264217
868,000000	24,297347
867,000000	24,328699
866,000000	24,364264
865,000000	24,389424
864,000000	24,423038
863,000000	24,450933
862,000000	24,466440
861,000000	24,499843
860,000000	23,816274
859,000000	23,856875
858,000000	23,861562
857,000000	23,862141
856,000000	23,909976
855,000000	23,898603
854,000000	23,910105
853,000000	23,953526
852,000000	23,966291
851,000000	23,990694
850,000000	24,007202
849,000000	24,030481
848,000000	24,048504
847,000000	24,065476
846,000000	24,098024
845,000000	24,090858
844,000000	24,126012
843,000000	24,163468
842,000000	24,170599
841,000000	24,225897
840,000000	24,234369
839,000000	24,271963
838,000000	24,284280
837,000000	24,304083
836,000000	24,315325
835,000000	24,358313
834,000000	24,387990
833,000000	24,394262
832,000000	24,424192
831,000000	24,448037
830,000000	24,474367
829,000000	24,509720
828,000000	24,532590
827,000000	24,557219
826,000000	24,565929
825,000000	24,599756
824,000000	24,640845
823,000000	24,653693
822,000000	24,666195
821,000000	24,675168
820,000000	24,693352
819,000000	24,712248
818,000000	24,712321
817,000000	24,729711
816,000000	24,726582
815,000000	24,743525
814,000000	24,752331
813,000000	24,749661
812,000000	24,762062
811,000000	24,757456
810,000000	24,734189
809,000000	24,730643
808,000000	24,713884
807,000000	24,715609
806,000000	24,703661
805,000000	24,692115
804,000000	24,688487
803,000000	24,664151
802,000000	24,652855
801,000000	24,633705
800,000000	24,620045
799,000000	24,600875
798,000000	24,579467
797,000000	24,556406
796,000000	24,541382
795,000000	24,511388
794,000000	24,497272
793,000000	24,464612
792,000000	24,438658
791,000000	24,414336
790,000000	24,403961
789,000000	24,378580
788,000000	24,361306
787,000000	24,344584
786,000000	24,317181
785,000000	24,296569
784,000000	24,291882
783,000000	24,262451
782,000000	24,248570
781,000000	24,227948
780,000000	24,207221
779,000000	24,201550
778,000000	24,200452
777,000000	24,179522
776,000000	24,159447
775,000000	24,144337
774,000000	24,131075
773,000000	24,118451
772,000000	24,099124
771,000000	24,081238
770,000000	24,069043
769,000000	24,048510
768,000000	24,031459
767,000000	24,016033
766,000000	23,987173
765,000000	23,966149
764,000000	23,952834
763,000000	23,929561
762,000000	23,902660
761,000000	23,872334
760,000000	23,838599
759,000000	23,798774
758,000000	23,759892
757,000000	23,721168
756,000000	23,678872
755,000000	23,638430
754,000000	23,591306
753,000000	23,538970
752,000000	23,483963
751,000000	23,426292
750,000000	23,374883
749,000000	23,311565
748,000000	23,248707
747,000000	23,189826
746,000000	23,130504
745,000000	23,066297
744,000000	23,006014
743,000000	22,936884
742,000000	22,870948
741,000000	22,808593
740,000000	22,731566
739,000000	22,654329
738,000000	22,588033
737,000000	22,517752
736,000000	22,449696
735,000000	22,385484
734,000000	22,316759
733,000000	22,250798
732,000000	22,186446
731,000000	22,123127
730,000000	22,062130
729,000000	22,003209
728,000000	21,944751
727,000000	21,884409
726,000000	21,826176
725,000000	21,773315
724,000000	21,717562
723,000000	21,653210
722,000000	21,590536
721,000000	21,530991
720,000000	21,476467
719,000000	21,425908
718,000000	21,369264
717,000000	21,308656
716,000000	21,249129
715,000000	21,188735
714,000000	21,128853
713,000000	21,064951
712,000000	21,000728
711,000000	20,932505
710,000000	20,858960
709,000000	20,787582
708,000000	20,714440
707,000000	20,632996
706,000000	20,552384
705,000000	20,471157
704,000000	20,387601
703,000000	20,300644
702,000000	20,211889
701,000000	20,125628
700,000000	20,036626
699,000000	19,940859
698,000000	19,844326
697,000000	19,749839
696,000000	19,654261
695,000000	19,557494
694,000000	19,460384
693,000000	19,362781
692,000000	19,267940
691,000000	19,173388
690,000000	19,078285
689,000000	18,979348
688,000000	18,884968
687,000000	18,792584
686,000000	18,700364
685,000000	18,609687
684,000000	18,524156
683,000000	18,437764
682,000000	18,350672
681,000000	18,267998
680,000000	18,187623
679,000000	18,110793
678,000000	18,033672
677,000000	17,952532
676,000000	17,871635
675,000000	17,793707
674,000000	17,711961
673,000000	17,632997
672,000000	17,557381
671,000000	17,477771
670,000000	17,398825
669,000000	17,315847
668,000000	17,232654
667,000000	17,155291
666,000000	17,076262
665,000000	16,991749
664,000000	16,906821
663,000000	16,820183
662,000000	16,731500
661,000000	16,643098
660,000000	16,557034
659,000000	16,464183
658,000000	16,372861
657,000000	16,283639
656,000000	16,189354
655,000000	16,093321
654,000000	16,001141
653,000000	15,909982
652,000000	15,819212
651,000000	15,729593
650,000000	15,646732
649,000000	15,564959
648,000000	15,481638
647,000000	15,395444
646,000000	15,314881
645,000000	15,242137
644,000000	15,163647
643,000000	15,088493
642,000000	15,023633
641,000000	14,963399
640,000000	14,900242
639,000000	14,837513
638,000000	14,776079
637,000000	14,718999
636,000000	14,659846
635,000000	14,606635
634,000000	14,549876
633,000000	14,495498
632,000000	14,448425
631,000000	14,394455
630,000000	14,345983
629,000000	14,298998
628,000000	14,247996
627,000000	14,195904
626,000000	14,144915
625,000000	14,099093
624,000000	14,046352
623,000000	13,998050
622,000000	13,951973
621,000000	13,907572
620,000000	13,854195
619,000000	13,804586
618,000000	13,763168
617,000000	13,722091
616,000000	13,682715
615,000000	13,642252
614,000000	13,605647
613,000000	13,574263
612,000000	13,546381
611,000000	13,520150
610,000000	13,501661
609,000000	13,479706
608,000000	13,463301
607,000000	13,453522
606,000000	13,450902
605,000000	13,449593
604,000000	13,449773
603,000000	13,454722
602,000000	13,459762
601,000000	13,471811
600,000000	13,483957
599,000000	13,500451
598,000000	13,514179
597,000000	13,539907
596,000000	13,558933
595,000000	13,578217
594,000000	13,605222
593,000000	13,636496
592,000000	13,664212
591,000000	13,687502
590,000000	13,715673
589,000000	13,746355
588,000000	13,774400
587,000000	13,804588
586,000000	13,843591
585,000000	13,875493
584,000000	13,911336
583,000000	13,950726
582,000000	13,996498
581,000000	14,038226
580,000000	14,086240
579,000000	14,135435
578,000000	14,197601
577,000000	14,255750
576,000000	14,320447
575,000000	14,397915
574,000000	14,475392
573,000000	14,564373
572,000000	14,650086
571,000000	14,747004
570,000000	14,842630
569,000000	14,936662
568,000000	15,036394
567,000000	15,140371
566,000000	15,246151
565,000000	15,355145
564,000000	15,459299
563,000000	15,558385
562,000000	15,637299
561,000000	15,736179
560,000000	15,837123
559,000000	15,945144
558,000000	16,046675
557,000000	16,146377
556,000000	16,244292
555,000000	16,345051
554,000000	16,453889
553,000000	16,561972
552,000000	16,671731
551,000000	16,781310
550,000000	16,897287
549,000000	17,019376
548,000000	17,144310
547,000000	17,270955
546,000000	17,402980
545,000000	17,544576
544,000000	17,682887
543,000000	17,824670
542,000000	17,968791
541,000000	18,118030
540,000000	18,265072
539,000000	18,411162
538,000000	18,548735
537,000000	18,681338
536,000000	18,814853
535,000000	18,940858
534,000000	19,068187
533,000000	19,192668
532,000000	19,306971
531,000000	19,418242
530,000000	19,524575
529,000000	19,631291
528,000000	19,732529
527,000000	19,837691
526,000000	19,940082
525,000000	20,046082
524,000000	20,147732
523,000000	20,247751
522,000000	20,341247
521,000000	20,436270
520,000000	20,524638
519,000000	20,610812
518,000000	20,689853
517,000000	20,763171
516,000000	20,817854
515,000000	20,862323
514,000000	20,896710
513,000000	20,914331
512,000000	20,917548
511,000000	20,904861
510,000000	20,891067
509,000000	20,863658
508,000000	20,825348
507,000000	20,787749
506,000000	20,750346
505,000000	20,713544
504,000000	20,665342
503,000000	20,620347
502,000000	20,573964
501,000000	20,531877
500,000000	20,487193
499,000000	20,430325
498,000000	20,370398
497,000000	20,302871
496,000000	20,224487
495,000000	20,132037
494,000000	20,036718
493,000000	19,925189
492,000000	19,800909
491,000000	19,665498
490,000000	19,523518
489,000000	19,372741
488,000000	19,221083
487,000000	19,064941
486,000000	18,906142
485,000000	18,759138
484,000000	18,616059
483,000000	18,482776
482,000000	18,364201
481,000000	18,274695
480,000000	18,193352
479,000000	18,089042
478,000000	17,952102
477,000000	17,798379
476,000000	17,633288
475,000000	17,462368
474,000000	17,285111
473,000000	17,103414
472,000000	16,913258
471,000000	16,719808
470,000000	16,529858
469,000000	16,337503
468,000000	16,151212
467,000000	15,971830
466,000000	15,805799
465,000000	15,648272
464,000000	15,493893
463,000000	15,349029
462,000000	15,214840
461,000000	15,085033
460,000000	14,961153
459,000000	14,845739
458,000000	14,734489
457,000000	14,631862
456,000000	14,541243
455,000000	14,467588
454,000000	14,407488
453,000000	14,366821
452,000000	14,344738
451,000000	14,338126
450,000000	14,349890
449,000000	14,383497
448,000000	14,437491
447,000000	14,499496
446,000000	14,570274
445,000000	14,646866
444,000000	14,728515
443,000000	14,823809
442,000000	14,929552
441,000000	15,044747
440,000000	15,166753
439,000000	15,303353
438,000000	15,451166
437,000000	15,601565
436,000000	15,754347
435,000000	15,908027
434,000000	16,044867
433,000000	16,152754
432,000000	16,238027
431,000000	16,298228
430,000000	16,321185
429,000000	16,304200
428,000000	16,238764
427,000000	16,125616
426,000000	15,956713
425,000000	15,713467
424,000000	15,387318
423,000000	14,974252
422,000000	14,473900
421,000000	13,891961
420,000000	13,256326
419,000000	12,590103
418,000000	11,915503
417,000000	11,256462
416,000000	10,633632
415,000000	10,065927
414,000000	9,564931
413,000000	9,133951
412,000000	8,776396
411,000000	8,484815
410,000000	8,254656
409,000000	8,074310
408,000000	7,929061
407,000000	7,817049
406,000000	7,730336
405,000000	7,659085
404,000000	7,603025
403,000000	7,555573
402,000000	7,514874
401,000000	7,477790
400,000000	7,440129
399,000000	7,400396
398,000000	7,359912
397,000000	7,318977
396,000000	7,275729
395,000000	7,233495
394,000000	7,184793
393,000000	7,136711
392,000000	7,088971
391,000000	7,041180
390,000000	6,995518
389,000000	6,949497
388,000000	6,909819
387,000000	6,876503
386,000000	6,847683
385,000000	6,819879
384,000000	6,804141
383,000000	6,791490
382,000000	6,775554
381,000000	6,769585
380,000000	6,764816
379,000000	6,699288
378,000000	6,627906
377,000000	6,629919
376,000000	6,635567
375,000000	6,633885
374,000000	6,637233
373,000000	6,636868
372,000000	6,614500
371,000000	6,593868
370,000000	6,586178
369,000000	6,553809
368,000000	6,518784
367,000000	6,476927
366,000000	6,422358
365,000000	6,362941
364,000000	6,303925
363,000000	6,242282
362,000000	6,159439
361,000000	6,078227
360,000000	5,989048
359,000000	5,898097
358,000000	5,790080
357,000000	5,690669
356,000000	5,565084
355,000000	5,445216
354,000000	5,324808
353,000000	5,214539
352,000000	5,091277
351,000000	4,973877
350,000000	4,867425
349,000000	4,744838
348,000000	4,643931
347,000000	4,545830
346,000000	4,440799
345,000000	4,344707
344,000000	4,254825
343,000000	4,176854
342,000000	4,102359
341,000000	4,023944
340,000000	3,966605
339,000000	3,888654
338,000000	3,823057
337,000000	3,761326
336,000000	3,692493
335,000000	3,638048
334,000000	3,585048
333,000000	3,532808
332,000000	3,465123
331,000000	3,424105
330,000000	3,362917
329,000000	3,318656
328,000000	3,262539
327,000000	3,200393
326,000000	3,124423
325,000000	3,060106
324,000000	2,998970
323,000000	2,935119
322,000000	2,876084
321,000000	2,829978
320,000000	2,774501
319,000000	2,685337
318,000000	2,632198
317,000000	2,584222
316,000000	2,541678
315,000000	2,502100
314,000000	2,469400
313,000000	2,434852
312,000000	2,402337
311,000000	2,372183
310,000000	2,346208
309,000000	2,322224
308,000000	2,304036
307,000000	2,291281
306,000000	2,283860
305,000000	2,273486
304,000000	2,271093
303,000000	2,270271
302,000000	2,264923
301,000000	2,253974
300,000000	2,243657
299,000000	2,228771
298,000000	2,213257
297,000000	2,190367
296,000000	2,160912
295,000000	2,129912
294,000000	2,099567
293,000000	2,065625
292,000000	2,019081
291,000000	1,978119
290,000000	1,929247
289,000000	1,870598
288,000000	1,803561
287,000000	1,732015
286,000000	1,649544
285,000000	1,557018
284,000000	1,455105
283,000000	1,348256
282,000000	1,235761
281,000000	1,120017
280,000000	1,000500
279,000000	0,883017
278,000000	0,769791
277,000000	0,655101
276,000000	0,556817
275,000000	0,466131
274,000000	0,392040
273,000000	0,330802
272,000000	0,286368
271,000000	0,253706
270,000000	0,235059
269,000000	0,224319
268,000000	0,220672
267,000000	0,215552
266,000000	0,213384
265,000000	0,210428
264,000000	0,206537
263,000000	0,205547
262,000000	0,204460
261,000000	0,203209
260,000000	0,204125
259,000000	0,200210
258,000000	0,201859
257,000000	0,200641
256,000000	0,201408
255,000000	0,200691
254,000000	0,198884
253,000000	0,196494
252,000000	0,196320
251,000000	0,195977
250,000000	0,193472
249,000000	0,194151
248,000000	0,193468
247,000000	0,195316
246,000000	0,190934
245,000000	0,191796
244,000000	0,192276
243,000000	0,194100
242,000000	0,194488
241,000000	0,195481
240,000000	0,195363
239,000000	0,197595
238,000000	0,200757
237,000000	0,201782
236,000000	0,201935
235,000000	0,202074
234,000000	0,203649
233,000000	0,204609
232,000000	0,204174
231,000000	0,205134
230,000000	0,206013
229,000000	0,204643
228,000000	0,205218
227,000000	0,206137
226,000000	0,206906
225,000000	0,205248
224,000000	0,204114
223,000000	0,203736
222,000000	0,202822
221,000000	0,202549
220,000000	0,201335
219,000000	0,200633
218,000000	0,197311
217,000000	0,197028
216,000000	0,197961
215,000000	0,198148
214,000000	0,195991
213,000000	0,194178
212,000000	0,196037
211,000000	0,195177
210,000000	0,194739
209,000000	0,196398
208,000000	0,196873
207,000000	0,198708
206,000000	0,200924
205,000000	0,202647
204,000000	0,204733
203,000000	0,205202
202,000000	0,205711
201,000000	0,209199
200,000000	0,210028
