PE UV       SUBTECH     SPECTRUM    ASCII       PEDS        4.00        
   -1
Q2zoom.Sample.asc
22/03/23
16:31:19.00
22/03/23
16:31:19.00
Administrator

350,000000
1
Lambda 1050
1050L1808311
PerkinElmer UV WinLab 6.4.0.973 / 2.02.11 Lambda 900 UV/VIS/NIR, May 23 2018 11:23:04

0
0
3350/servo 1800,8/servo 860,8/1
0
0
UV/VIS
1
1
1
CommonBeamDepol,RBeamAtt,SBeamAtt,uv/vis/nir detector, TDS WB InGaAs Detector
0
0
0
0
Program
 
0
3350/0,2 1800,8/0,2 860,8/0,2
0
0
0
 
 
 
0
 
860,8
319,2
1800,8 860,8
Front
100
on
S:100 R:100
 
0
0
0
 
0
 
 
 
0
 
 
0
0
0
0
0
 
 
 
 
0
0


0
0
#HDR
-1
-1
#GR
nm
%T
1.0
0.0
600,000000
-0,500000
501
8
4,374941
1,544683
#DATA
600,000000	4,118319
599,500000	4,123439
599,000000	4,118008
598,500000	4,116170
598,000000	4,117028
597,500000	4,114596
597,000000	4,113816
596,500000	4,110498
596,000000	4,110137
595,500000	4,107257
595,000000	4,108071
594,500000	4,103583
594,000000	4,102606
593,500000	4,096482
593,000000	4,096366
592,500000	4,096242
592,000000	4,089595
591,500000	4,087837
591,000000	4,086414
590,500000	4,089029
590,000000	4,087790
589,500000	4,085906
589,000000	4,086214
588,500000	4,084348
588,000000	4,082368
587,500000	4,082115
587,000000	4,081126
586,500000	4,081402
586,000000	4,080412
585,500000	4,076105
585,000000	4,076841
584,500000	4,081085
584,000000	4,081982
583,500000	4,080498
583,000000	4,077911
582,500000	4,078961
582,000000	4,072902
581,500000	4,075808
581,000000	4,074754
580,500000	4,075496
580,000000	4,074766
579,500000	4,069359
579,000000	4,071949
578,500000	4,068483
578,000000	4,067292
577,500000	4,067578
577,000000	4,066280
576,500000	4,066771
576,000000	4,067266
575,500000	4,064856
575,000000	4,065320
574,500000	4,065465
574,000000	4,065774
573,500000	4,064104
573,000000	4,063601
572,500000	4,059100
572,000000	4,059254
571,500000	4,060530
571,000000	4,061123
570,500000	4,059514
570,000000	4,056167
569,500000	4,056799
569,000000	4,055340
568,500000	4,056685
568,000000	4,055322
567,500000	4,055051
567,000000	4,053064
566,500000	4,051544
566,000000	4,052466
565,500000	4,048676
565,000000	4,048674
564,500000	4,049341
564,000000	4,048376
563,500000	4,048799
563,000000	4,050421
562,500000	4,045898
562,000000	4,037319
561,500000	4,036322
561,000000	4,037206
560,500000	4,038852
560,000000	4,039011
559,500000	4,038283
559,000000	4,038180
558,500000	4,038587
558,000000	4,038377
557,500000	4,037413
557,000000	4,037871
556,500000	4,039433
556,000000	4,041926
555,500000	4,039923
555,000000	4,040547
554,500000	4,041928
554,000000	4,042133
553,500000	4,042703
553,000000	4,046031
552,500000	4,047431
552,000000	4,047443
551,500000	4,050506
551,000000	4,050408
550,500000	4,051893
550,000000	4,053182
549,500000	4,053754
549,000000	4,057040
548,500000	4,056582
548,000000	4,058512
547,500000	4,060039
547,000000	4,060920
546,500000	4,064884
546,000000	4,067449
545,500000	4,068917
545,000000	4,070593
544,500000	4,071802
544,000000	4,072226
543,500000	4,074232
543,000000	4,077919
542,500000	4,079761
542,000000	4,081167
541,500000	4,082685
541,000000	4,083973
540,500000	4,086202
540,000000	4,088696
539,500000	4,089473
539,000000	4,090729
538,500000	4,093995
538,000000	4,096942
537,500000	4,098483
537,000000	4,098667
536,500000	4,101408
536,000000	4,103353
535,500000	4,105189
535,000000	4,107207
534,500000	4,108934
534,000000	4,110935
533,500000	4,114740
533,000000	4,116278
532,500000	4,118652
532,000000	4,120012
531,500000	4,122686
531,000000	4,126973
530,500000	4,129814
530,000000	4,133393
529,500000	4,136507
529,000000	4,139140
528,500000	4,143619
528,000000	4,147527
527,500000	4,150077
527,000000	4,154177
526,500000	4,158631
526,000000	4,160415
525,500000	4,163800
525,000000	4,168411
524,500000	4,172447
524,000000	4,175744
523,500000	4,179017
523,000000	4,184067
522,500000	4,188716
522,000000	4,194049
521,500000	4,197532
521,000000	4,199007
520,500000	4,201150
520,000000	4,204257
519,500000	4,207774
519,000000	4,211260
518,500000	4,211829
518,000000	4,213806
517,500000	4,215965
517,000000	4,220828
516,500000	4,222392
516,000000	4,221073
515,500000	4,224786
515,000000	4,228627
514,500000	4,230856
514,000000	4,230897
513,500000	4,230652
513,000000	4,229532
512,500000	4,230572
512,000000	4,231741
511,500000	4,231938
511,000000	4,234677
510,500000	4,232821
510,000000	4,229258
509,500000	4,227548
509,000000	4,229198
508,500000	4,230019
508,000000	4,230946
507,500000	4,228901
507,000000	4,226201
506,500000	4,228179
506,000000	4,230007
505,500000	4,227628
505,000000	4,227912
504,500000	4,226016
504,000000	4,223469
503,500000	4,225192
503,000000	4,224371
502,500000	4,225643
502,000000	4,226832
501,500000	4,225802
501,000000	4,229431
500,500000	4,227264
500,000000	4,229174
499,500000	4,230807
499,000000	4,232239
498,500000	4,230853
498,000000	4,229962
497,500000	4,234177
497,000000	4,232922
496,500000	4,234428
496,000000	4,235722
495,500000	4,236438
495,000000	4,242274
494,500000	4,244485
494,000000	4,243309
493,500000	4,247777
493,000000	4,246917
492,500000	4,247749
492,000000	4,250175
491,500000	4,254004
491,000000	4,254520
490,500000	4,255490
490,000000	4,256237
489,500000	4,257254
489,000000	4,260244
488,500000	4,257379
488,000000	4,258387
487,500000	4,261095
487,000000	4,261839
486,500000	4,265795
486,000000	4,265251
485,500000	4,268827
485,000000	4,269379
484,500000	4,273691
484,000000	4,275685
483,500000	4,276767
483,000000	4,280473
482,500000	4,281637
482,000000	4,287244
481,500000	4,293831
481,000000	4,296836
480,500000	4,307781
480,000000	4,319977
479,500000	4,328062
479,000000	4,332189
478,500000	4,334779
478,000000	4,338487
477,500000	4,344880
477,000000	4,348757
476,500000	4,348897
476,000000	4,351874
475,500000	4,355227
475,000000	4,360411
474,500000	4,360294
474,000000	4,365034
473,500000	4,364528
473,000000	4,372654
472,500000	4,367177
472,000000	4,368691
471,500000	4,370021
471,000000	4,370001
470,500000	4,370563
470,000000	4,370452
469,500000	4,369818
469,000000	4,374941
468,500000	4,373272
468,000000	4,366564
467,500000	4,368438
467,000000	4,362711
466,500000	4,360616
466,000000	4,358338
465,500000	4,356558
465,000000	4,352833
464,500000	4,349791
464,000000	4,345050
463,500000	4,341178
463,000000	4,342861
462,500000	4,337472
462,000000	4,334390
461,500000	4,328981
461,000000	4,328570
460,500000	4,322560
460,000000	4,318261
459,500000	4,316644
459,000000	4,314865
458,500000	4,308818
458,000000	4,308222
457,500000	4,308049
457,000000	4,301735
456,500000	4,303047
456,000000	4,297708
455,500000	4,292620
455,000000	4,290968
454,500000	4,282620
454,000000	4,280952
453,500000	4,279260
453,000000	4,274299
452,500000	4,272505
452,000000	4,264043
451,500000	4,259629
451,000000	4,254599
450,500000	4,248843
450,000000	4,247980
449,500000	4,240703
449,000000	4,229179
448,500000	4,228234
448,000000	4,218579
447,500000	4,215981
447,000000	4,211993
446,500000	4,203143
446,000000	4,195229
445,500000	4,191009
445,000000	4,183487
444,500000	4,175898
444,000000	4,165550
443,500000	4,159530
443,000000	4,161254
442,500000	4,152446
442,000000	4,154455
441,500000	4,143281
441,000000	4,137398
440,500000	4,140118
440,000000	4,130752
439,500000	4,126203
439,000000	4,119866
438,500000	4,115425
438,000000	4,107964
437,500000	4,104355
437,000000	4,096534
436,500000	4,091559
436,000000	4,087981
435,500000	4,079378
435,000000	4,070864
434,500000	4,064111
434,000000	4,053458
433,500000	4,046095
433,000000	4,036423
432,500000	4,030883
432,000000	4,019230
431,500000	4,010077
431,000000	3,996398
430,500000	3,983181
430,000000	3,975185
429,500000	3,965186
429,000000	3,951270
428,500000	3,939177
428,000000	3,922978
427,500000	3,905289
427,000000	3,886034
426,500000	3,870093
426,000000	3,846856
425,500000	3,823595
425,000000	3,797357
424,500000	3,765363
424,000000	3,731200
423,500000	3,702159
423,000000	3,662366
422,500000	3,618991
422,000000	3,573108
421,500000	3,534313
421,000000	3,482886
420,500000	3,431142
420,000000	3,372494
419,500000	3,314410
419,000000	3,258157
418,500000	3,198480
418,000000	3,138495
417,500000	3,076412
417,000000	3,015619
416,500000	2,955630
416,000000	2,897168
415,500000	2,838195
415,000000	2,777970
414,500000	2,726697
414,000000	2,677830
413,500000	2,628431
413,000000	2,583958
412,500000	2,537596
412,000000	2,496514
411,500000	2,462869
411,000000	2,426539
410,500000	2,394645
410,000000	2,365065
409,500000	2,338718
409,000000	2,313482
408,500000	2,291869
408,000000	2,273907
407,500000	2,257081
407,000000	2,239935
406,500000	2,227438
406,000000	2,216740
405,500000	2,202655
405,000000	2,190863
404,500000	2,184265
404,000000	2,174898
403,500000	2,167578
403,000000	2,161874
402,500000	2,153845
402,000000	2,148446
401,500000	2,140655
401,000000	2,136734
400,500000	2,134347
400,000000	2,129285
399,500000	2,122293
399,000000	2,119521
398,500000	2,116531
398,000000	2,110734
397,500000	2,106503
397,000000	2,102033
396,500000	2,096578
396,000000	2,092565
395,500000	2,089308
395,000000	2,084106
394,500000	2,076210
394,000000	2,070392
393,500000	2,066779
393,000000	2,060961
392,500000	2,056519
392,000000	2,051134
391,500000	2,048768
391,000000	2,041618
390,500000	2,032179
390,000000	2,025718
389,500000	2,022726
389,000000	2,020352
388,500000	2,016717
388,000000	2,011089
387,500000	2,002754
387,000000	1,998265
386,500000	1,996100
386,000000	1,995316
385,500000	1,994822
385,000000	1,988434
384,500000	1,983631
384,000000	1,981696
383,500000	1,978810
383,000000	1,980254
382,500000	1,978833
382,000000	1,977423
381,500000	1,976973
381,000000	1,972799
380,500000	1,971006
380,000000	1,969708
379,500000	1,970632
379,000000	1,944636
378,500000	1,893477
378,000000	1,871996
377,500000	1,874468
377,000000	1,867776
376,500000	1,865202
376,000000	1,869986
375,500000	1,880255
375,000000	1,883294
374,500000	1,879705
374,000000	1,876618
373,500000	1,877185
373,000000	1,879573
372,500000	1,882931
372,000000	1,882928
371,500000	1,887658
371,000000	1,887373
370,500000	1,879286
370,000000	1,877806
369,500000	1,876708
369,000000	1,871540
368,500000	1,870358
368,000000	1,870898
367,500000	1,872768
367,000000	1,865598
366,500000	1,858851
366,000000	1,857073
365,500000	1,846937
365,000000	1,843449
364,500000	1,841930
364,000000	1,830999
363,500000	1,823459
363,000000	1,819957
362,500000	1,817614
362,000000	1,809686
361,500000	1,802751
361,000000	1,798767
360,500000	1,787199
360,000000	1,778347
359,500000	1,768809
359,000000	1,750604
358,500000	1,741457
358,000000	1,741054
357,500000	1,728444
357,000000	1,716595
356,500000	1,702977
356,000000	1,688576
355,500000	1,684169
355,000000	1,670480
354,500000	1,654556
354,000000	1,642547
353,500000	1,636143
353,000000	1,624960
352,500000	1,609594
352,000000	1,596443
351,500000	1,578219
351,000000	1,567659
350,500000	1,557996
350,000000	1,544683
