PE UV       SUBTECH     SPECTRUM    ASCII       PEDS        4.00        
   -1
b.Sample.asc
22/05/19
15:32:27.00
22/05/19
15:32:27.00
Administrator

400.000000
1
Lambda 1050
1050L1808311
PerkinElmer UV WinLab 6.4.0.973 / 2.02.11 Lambda 900 UV/VIS/NIR. May 23 2018 11:23:04

0
0
3350/servo 860.8/2
0
0
UV/VIS
1
1
1
CommonBeamDepol.RBeamAtt.SBeamAtt.60mm sphere
0
0
0
0
Program
 
0
3350/0.2 860.8/1
0
0
0
 
 
 
0
 
860.8
319.2
860.8
Front
100
on
S:100 R:100
 
0
0
0
 
0
 
 
 
0
 
 
0
0
0
0
0
 
 
 
 
0
0


0
0
#HDR
-1
-1
#GR
nm
%T
1.0
0.0
850.000000
-3.000000
151
8
82.620796
52.624865
#DATA
850.000000	82.620796
847.000000	82.531536
844.000000	82.466959
841.000000	82.506702
838.000000	82.128028
835.000000	82.129940
832.000000	81.947921
829.000000	81.762384
826.000000	81.617457
823.000000	81.519389
820.000000	81.326134
817.000000	81.082857
814.000000	80.994238
811.000000	80.774093
808.000000	80.872674
805.000000	80.616000
802.000000	80.569118
799.000000	80.500881
796.000000	80.430859
793.000000	80.489618
790.000000	80.476700
787.000000	80.544904
784.000000	80.732117
781.000000	80.817851
778.000000	80.953370
775.000000	81.053978
772.000000	81.181266
769.000000	81.304944
766.000000	81.443794
763.000000	81.514661
760.000000	81.551353
757.000000	81.605120
754.000000	81.638471
751.000000	81.612274
748.000000	81.568086
745.000000	81.464464
742.000000	81.378676
739.000000	81.184744
736.000000	80.971109
733.000000	80.715309
730.000000	80.577921
727.000000	80.274653
724.000000	80.167540
721.000000	79.946390
718.000000	79.803933
715.000000	79.759407
712.000000	79.656041
709.000000	79.564124
706.000000	79.461896
703.000000	79.644769
700.000000	79.707050
697.000000	79.764630
694.000000	79.917211
691.000000	80.094213
688.000000	80.132504
685.000000	80.275167
682.000000	80.368259
679.000000	80.475250
676.000000	80.409873
673.000000	80.391503
670.000000	80.294966
667.000000	80.125625
664.000000	79.947267
661.000000	79.681046
658.000000	79.504197
655.000000	79.239893
652.000000	78.942565
649.000000	78.801876
646.000000	78.645779
643.000000	78.539370
640.000000	78.518910
637.000000	78.572987
634.000000	78.600246
631.000000	78.658368
628.000000	78.870696
625.000000	78.971912
622.000000	79.116942
619.000000	79.184951
616.000000	79.199697
613.000000	79.150597
610.000000	78.967565
607.000000	78.805737
604.000000	78.582965
601.000000	78.318729
598.000000	78.100426
595.000000	77.877712
592.000000	77.682680
589.000000	77.571632
586.000000	77.505438
583.000000	77.531871
580.000000	77.685801
577.000000	77.763522
574.000000	77.892886
571.000000	78.030545
568.000000	78.101169
565.000000	77.973035
562.000000	77.920337
559.000000	77.704729
556.000000	77.383644
553.000000	77.078262
550.000000	76.786480
547.000000	76.584135
544.000000	76.408841
541.000000	76.337758
538.000000	76.464686
535.000000	76.618971
532.000000	76.761299
529.000000	76.823680
526.000000	76.782958
523.000000	76.654335
520.000000	76.327306
517.000000	75.944782
514.000000	75.511297
511.000000	75.163510
508.000000	74.889235
505.000000	74.784776
502.000000	74.775584
499.000000	74.920375
496.000000	74.997941
493.000000	75.004885
490.000000	74.830253
487.000000	74.508366
484.000000	74.054341
481.000000	73.603710
478.000000	73.226322
475.000000	73.048883
472.000000	73.015441
469.000000	72.991879
466.000000	72.877417
463.000000	72.591849
460.000000	72.069678
457.000000	71.401957
454.000000	70.943871
451.000000	70.611196
448.000000	70.399505
445.000000	70.216412
442.000000	69.923089
439.000000	69.248833
436.000000	68.291834
433.000000	67.331378
430.000000	66.372477
427.000000	65.204748
424.000000	63.426248
421.000000	60.861399
418.000000	57.975665
415.000000	55.470282
412.000000	53.696295
409.000000	52.754052
406.000000	52.624865
403.000000	53.060451
400.000000	53.698729
