PE UV       SUBTECH     SPECTRUM    ASCII       PEDS        4.00        
   -1
b7.Sample.asc
22/05/19
15:49:27.00
22/05/19
15:49:27.00
Administrator

400.000000
1
Lambda 1050
1050L1808311
PerkinElmer UV WinLab 6.4.0.973 / 2.02.11 Lambda 900 UV/VIS/NIR. May 23 2018 11:23:04

0
0
3350/servo 860.8/2
0
0
UV/VIS
1
1
1
CommonBeamDepol.RBeamAtt.SBeamAtt.60mm sphere
0
0
0
0
Program
 
0
3350/0.2 860.8/1
0
0
0
 
 
 
0
 
860.8
319.2
860.8
Front
100
on
S:100 R:100
 
0
0
0
 
0
 
 
 
0
 
 
0
0
0
0
0
 
 
 
 
0
0


0
0
#HDR
-1
-1
#GR
nm
%T
1.0
0.0
850.000000
-3.000000
151
8
65.475653
41.784517
#DATA
850.000000	65.084669
847.000000	65.270612
844.000000	65.475653
841.000000	65.462362
838.000000	65.410344
835.000000	65.377537
832.000000	65.373637
829.000000	65.238706
826.000000	65.208194
823.000000	65.117160
820.000000	65.169819
817.000000	64.930185
814.000000	64.808937
811.000000	64.778899
808.000000	64.664997
805.000000	64.403734
802.000000	64.433322
799.000000	64.336197
796.000000	64.197723
793.000000	64.187315
790.000000	64.135265
787.000000	64.102852
784.000000	64.062522
781.000000	64.094851
778.000000	64.180135
775.000000	64.170835
772.000000	64.278201
769.000000	64.390913
766.000000	64.459986
763.000000	64.600351
760.000000	64.733169
757.000000	64.871564
754.000000	64.932987
751.000000	65.011876
748.000000	65.097834
745.000000	65.147209
742.000000	65.219886
739.000000	65.218167
736.000000	65.097958
733.000000	65.017463
730.000000	65.026383
727.000000	64.882472
724.000000	64.803928
721.000000	64.618798
718.000000	64.463913
715.000000	64.315392
712.000000	64.171712
709.000000	64.055412
706.000000	63.948054
703.000000	63.875403
700.000000	63.814243
697.000000	63.804604
694.000000	63.859399
691.000000	63.949232
688.000000	63.915722
685.000000	64.013644
682.000000	64.143323
679.000000	64.263417
676.000000	64.305684
673.000000	64.479916
670.000000	64.571626
667.000000	64.545899
664.000000	64.540851
661.000000	64.500431
658.000000	64.432315
655.000000	64.264233
652.000000	64.089292
649.000000	63.959749
646.000000	63.777144
643.000000	63.600586
640.000000	63.529843
637.000000	63.410451
634.000000	63.308002
631.000000	63.208708
628.000000	63.295751
625.000000	63.344627
622.000000	63.416609
619.000000	63.508382
616.000000	63.616214
613.000000	63.707238
610.000000	63.753246
607.000000	63.784478
604.000000	63.735671
601.000000	63.685761
598.000000	63.548793
595.000000	63.377993
592.000000	63.197401
589.000000	62.986114
586.000000	62.816695
583.000000	62.704920
580.000000	62.665836
577.000000	62.565032
574.000000	62.618540
571.000000	62.682939
568.000000	62.796839
565.000000	62.883659
562.000000	63.052643
559.000000	63.065229
556.000000	63.020010
553.000000	62.904811
550.000000	62.778284
547.000000	62.599565
544.000000	62.384506
541.000000	62.282974
538.000000	62.297356
535.000000	62.359781
532.000000	62.500971
529.000000	62.750974
526.000000	63.015081
523.000000	63.211483
520.000000	63.222693
517.000000	63.091434
514.000000	62.727444
511.000000	62.257996
508.000000	61.728493
505.000000	61.308642
502.000000	60.911680
499.000000	60.714427
496.000000	60.579668
493.000000	60.568445
490.000000	60.602286
487.000000	60.644394
484.000000	60.573190
481.000000	60.702886
478.000000	60.614693
475.000000	60.403228
472.000000	60.160792
469.000000	59.916902
466.000000	59.734749
463.000000	59.595885
460.000000	59.400546
457.000000	59.058296
454.000000	58.637276
451.000000	58.125676
448.000000	57.656384
445.000000	57.304358
442.000000	57.154241
439.000000	56.889990
436.000000	56.394902
433.000000	55.581889
430.000000	54.507719
427.000000	53.228738
424.000000	51.689663
421.000000	49.688664
418.000000	47.148095
415.000000	44.732249
412.000000	42.965197
409.000000	42.037345
406.000000	41.784517
403.000000	41.934812
400.000000	42.299871
