PE UV       SUBTECH     SPECTRUM    ASCII       PEDS        4.00        
   -1
bg1.Sample.asc
22/03/18
14:51:40.00
22/03/18
14:51:40.00
Administrator

200,000000
1
Lambda 1050
1050L1808311
PerkinElmer UV WinLab 6.4.0.973 / 2.02.11 Lambda 900 UV/VIS/NIR, May 23 2018 11:23:04

0
0
3350/servo 1800,8/servo 860,8/2
0
0
UV/VIS
1
1
1
CommonBeamDepol,RBeamAtt,SBeamAtt,uv/vis/nir detector, TDS WB InGaAs Detector
0
0
0
0
Program
Program
3350/servo 1800,8/servo 860,8/2
3350/0,2 1800,8/0,2 860,8/0,2
3350/0,2 1800,8/0,2 860,8/0,2
0
3350/1,00 1800,8/1,00
 
 
 
0
 
860,8
319,2
1800,8 860,8
Front
100
on
S:100 R:100
 
0
0
0
 
0
 
 
 
0
 
 
0
0
0
0
0
 
 
 
 
0
0


0
0
#HDR
-1
-1
#GR
nm
%T
1.0
0.0
1000,000000
-10,000000
81
8
91,901782
-0,005156
#DATA
1000,000000	86,088520
990,000000	87,050683
980,000000	87,840297
970,000000	88,488777
960,000000	89,016183
950,000000	89,470191
940,000000	89,832759
930,000000	90,128146
920,000000	90,395990
910,000000	90,646525
900,000000	90,840023
890,000000	91,005389
880,000000	91,182552
870,000000	91,335547
860,000000	91,355120
850,000000	91,495476
840,000000	91,561513
830,000000	91,635684
820,000000	91,690799
810,000000	91,729859
800,000000	91,812676
790,000000	91,861889
780,000000	91,894567
770,000000	91,901782
760,000000	91,807174
750,000000	91,362122
740,000000	90,269020
730,000000	87,337605
720,000000	80,065655
710,000000	64,268843
700,000000	37,988397
690,000000	11,891416
680,000000	1,472452
670,000000	0,094179
660,000000	0,001173
650,000000	-0,000938
640,000000	-0,005156
630,000000	-0,003629
620,000000	-0,002456
610,000000	-0,002803
600,000000	-0,004780
590,000000	-0,004774
580,000000	0,008372
570,000000	0,118306
560,000000	0,193478
550,000000	0,064902
540,000000	0,028495
530,000000	0,072701
520,000000	0,415195
510,000000	1,629722
500,000000	4,990365
490,000000	10,801102
480,000000	23,147237
470,000000	39,626881
460,000000	54,222093
450,000000	63,345945
440,000000	70,786586
430,000000	76,515777
420,000000	81,429116
410,000000	84,859347
400,000000	87,875369
390,000000	89,748489
380,000000	89,982819
370,000000	90,197543
360,000000	90,468494
350,000000	90,226869
340,000000	89,764029
330,000000	89,101682
320,000000	87,114259
310,000000	82,239474
300,000000	71,470634
290,000000	49,720020
280,000000	19,284547
270,000000	1,565548
260,000000	0,004219
250,000000	-0,001987
240,000000	-0,003346
230,000000	0,002298
220,000000	0,002254
210,000000	0,002980
200,000000	0,016173
