PE UV       SUBTECH     SPECTRUM    ASCII       PEDS        4.00        
   -1
fg13.Sample.asc
22/03/18
14:55:18.00
22/03/18
14:55:18.00
Administrator

200,000000
1
Lambda 1050
1050L1808311
PerkinElmer UV WinLab 6.4.0.973 / 2.02.11 Lambda 900 UV/VIS/NIR, May 23 2018 11:23:04

0
0
3350/servo 1800,8/servo 860,8/2
0
0
UV/VIS
1
1
1
CommonBeamDepol,RBeamAtt,SBeamAtt,uv/vis/nir detector, TDS WB InGaAs Detector
0
0
0
0
Program
Program
3350/servo 1800,8/servo 860,8/2
3350/0,2 1800,8/0,2 860,8/0,2
3350/0,2 1800,8/0,2 860,8/0,2
0
3350/1,00 1800,8/1,00
 
 
 
0
 
860,8
319,2
1800,8 860,8
Front
100
on
S:100 R:100
 
0
0
0
 
0
 
 
 
0
 
 
0
0
0
0
0
 
 
 
 
0
0


0
0
#HDR
-1
-1
#GR
nm
%T
1.0
0.0
1000,000000
-10,000000
81
8
82,946549
-0,009980
#DATA
1000,000000	82,946549
990,000000	82,849497
980,000000	82,741126
970,000000	82,627927
960,000000	82,527850
950,000000	82,435531
940,000000	82,306816
930,000000	82,214258
920,000000	82,086154
910,000000	81,962458
900,000000	81,817364
890,000000	81,702523
880,000000	81,588756
870,000000	81,464332
860,000000	81,299023
850,000000	81,120753
840,000000	80,947663
830,000000	80,764437
820,000000	80,615415
810,000000	80,391233
800,000000	80,124957
790,000000	79,843745
780,000000	79,518921
770,000000	79,120384
760,000000	78,637538
750,000000	77,953490
740,000000	77,101825
730,000000	76,007941
720,000000	74,653573
710,000000	72,915267
700,000000	70,836854
690,000000	68,364916
680,000000	65,657721
670,000000	62,520877
660,000000	59,585393
650,000000	57,007772
640,000000	54,673343
630,000000	52,634198
620,000000	50,742560
610,000000	48,680114
600,000000	46,176753
590,000000	43,116932
580,000000	39,563389
570,000000	35,596402
560,000000	31,309920
550,000000	26,690857
540,000000	21,814503
530,000000	16,985221
520,000000	12,577864
510,000000	8,876440
500,000000	5,932538
490,000000	3,978185
480,000000	2,739487
470,000000	1,471322
460,000000	0,479136
450,000000	0,136039
440,000000	0,063167
430,000000	0,036093
420,000000	0,014275
410,000000	0,005824
400,000000	0,000487
390,000000	0,002570
380,000000	0,001106
370,000000	-0,002900
360,000000	-0,009880
350,000000	0,002461
340,000000	0,005453
330,000000	0,006474
320,000000	0,010251
310,000000	-0,004269
300,000000	-0,009234
290,000000	-0,009160
280,000000	-0,009980
270,000000	-0,006967
260,000000	-0,004878
250,000000	-0,006624
240,000000	-0,005354
230,000000	-0,003244
220,000000	0,001193
210,000000	0,005442
200,000000	0,012323
