PE UV       SUBTECH     SPECTRUM    ASCII       PEDS        4.00        
   -1
od40.Sample.asc
22/03/18
15:05:10.00
22/03/18
15:05:10.00
Administrator

200,000000
1
Lambda 1050
1050L1808311
PerkinElmer UV WinLab 6.4.0.973 / 2.02.11 Lambda 900 UV/VIS/NIR, May 23 2018 11:23:04

0
0
3350/servo 1800,8/servo 860,8/2
0
0
UV/VIS
1
1
1
CommonBeamDepol,RBeamAtt,SBeamAtt,uv/vis/nir detector, TDS WB InGaAs Detector
0
0
0
0
Program
Program
3350/servo 1800,8/servo 860,8/2
3350/0,2 1800,8/0,2 860,8/0,2
3350/0,2 1800,8/0,2 860,8/0,2
0
3350/1,00 1800,8/1,00
 
 
 
0
 
860,8
319,2
1800,8 860,8
Front
100
on
S:100 R:100
 
0
0
0
 
0
 
 
 
0
 
 
0
0
0
0
0
 
 
 
 
0
0


0
0
#HDR
-1
-1
#GR
nm
%T
1.0
0.0
1000,000000
-10,000000
81
8
45,483317
-0,009364
#DATA
1000,000000	28,276232
990,000000	28,637586
980,000000	29,031921
970,000000	29,459786
960,000000	29,921700
950,000000	30,428647
940,000000	30,963160
930,000000	31,532046
920,000000	32,133070
910,000000	32,765210
900,000000	33,431929
890,000000	34,112455
880,000000	34,830511
870,000000	35,579729
860,000000	36,403551
850,000000	37,085293
840,000000	37,868938
830,000000	38,676809
820,000000	39,468559
810,000000	40,282491
800,000000	41,059905
790,000000	41,851503
780,000000	42,627174
770,000000	43,354047
760,000000	44,032128
750,000000	44,612520
740,000000	45,096907
730,000000	45,422521
720,000000	45,483317
710,000000	45,158052
700,000000	44,307977
690,000000	42,927276
680,000000	41,171444
670,000000	39,567598
660,000000	38,600423
650,000000	38,218846
640,000000	38,223893
630,000000	38,317424
620,000000	38,161426
610,000000	37,727503
600,000000	37,260526
590,000000	37,130491
580,000000	37,584638
570,000000	38,339160
560,000000	38,955011
550,000000	39,167847
540,000000	39,022786
530,000000	38,569345
520,000000	38,114992
510,000000	37,889027
500,000000	37,930716
490,000000	38,231012
480,000000	38,781897
470,000000	39,346792
460,000000	39,265244
450,000000	37,660426
440,000000	36,012426
430,000000	36,172111
420,000000	34,990412
410,000000	34,384112
400,000000	34,244120
390,000000	29,782786
380,000000	19,552350
370,000000	20,438753
360,000000	14,849867
350,000000	7,079025
340,000000	1,767797
330,000000	0,129983
320,000000	0,013876
310,000000	-0,000647
300,000000	-0,009364
290,000000	-0,008506
280,000000	-0,007222
270,000000	-0,007625
260,000000	-0,007120
250,000000	-0,006094
240,000000	-0,005086
230,000000	-0,002568
220,000000	0,001989
210,000000	0,002980
200,000000	0,013093
