PE UV       SUBTECH     SPECTRUM    ASCII       PEDS        4.00        
   -1
rg850_new.Sample.asc
22/03/18
14:47:34.00
22/03/18
14:47:34.00
Administrator

200,000000
1
Lambda 1050
1050L1808311
PerkinElmer UV WinLab 6.4.0.973 / 2.02.11 Lambda 900 UV/VIS/NIR, May 23 2018 11:23:04

0
0
3350/servo 1800,8/servo 860,8/2
0
0
UV/VIS
1
1
1
CommonBeamDepol,RBeamAtt,SBeamAtt,uv/vis/nir detector, TDS WB InGaAs Detector
0
0
0
0
Program
Program
3350/servo 1800,8/servo 860,8/2
3350/0,2 1800,8/0,2 860,8/0,2
3350/0,2 1800,8/0,2 860,8/0,2
0
3350/1,00 1800,8/1,00
 
 
 
0
 
860,8
319,2
1800,8 860,8
Front
100
on
S:100 R:100
 
0
0
0
 
0
 
 
 
0
 
 
0
0
0
0
0
 
 
 
 
0
0


0
0
#HDR
-1
-1
#GR
nm
%T
1.0
0.0
1000,000000
-10,000000
81
8
90,018504
-0,024184
#DATA
1000,000000	90,018504
990,000000	89,988602
980,000000	89,935341
970,000000	89,886154
960,000000	89,848495
950,000000	89,809844
940,000000	89,729894
930,000000	89,632363
920,000000	89,426731
910,000000	89,108571
900,000000	88,501529
890,000000	87,351171
880,000000	85,128066
870,000000	80,785325
860,000000	73,691417
850,000000	60,236317
840,000000	40,352863
830,000000	19,748285
820,000000	6,828137
810,000000	1,867136
800,000000	0,465280
790,000000	0,117545
780,000000	0,031328
770,000000	0,005690
760,000000	-0,000000
750,000000	-0,003489
740,000000	-0,005472
730,000000	-0,005129
720,000000	-0,005370
710,000000	-0,007129
700,000000	-0,004798
690,000000	-0,005039
680,000000	-0,008557
670,000000	-0,005630
660,000000	-0,006216
650,000000	-0,004574
640,000000	-0,007382
630,000000	-0,007376
620,000000	-0,006782
610,000000	-0,007824
600,000000	-0,006063
590,000000	-0,003726
580,000000	-0,006512
570,000000	-0,004992
560,000000	-0,003927
550,000000	-0,012472
540,000000	-0,011352
530,000000	-0,008677
520,000000	-0,003379
510,000000	0,012549
500,000000	0,017361
490,000000	-0,002654
480,000000	-0,024184
470,000000	-0,004026
460,000000	0,012545
450,000000	0,005688
440,000000	-0,002773
430,000000	-0,001690
420,000000	-0,001573
410,000000	-0,002063
400,000000	-0,002071
390,000000	0,000122
380,000000	-0,001106
370,000000	-0,009545
360,000000	-0,008904
350,000000	-0,000861
340,000000	0,004338
330,000000	0,006723
320,000000	0,012626
310,000000	-0,002587
300,000000	-0,008583
290,000000	-0,008506
280,000000	-0,007222
270,000000	-0,006836
260,000000	-0,005406
250,000000	-0,006227
240,000000	-0,004149
230,000000	-0,002974
220,000000	0,001061
210,000000	0,002073
200,000000	0,012066
