PE UV       SUBTECH     SPECTRUM    ASCII       PEDS        4.00        
   -1
sampleA.Sample.asc
22/03/18
15:08:22.00
22/03/18
15:08:22.00
Administrator

200,000000
1
Lambda 1050
1050L1808311
PerkinElmer UV WinLab 6.4.0.973 / 2.02.11 Lambda 900 UV/VIS/NIR, May 23 2018 11:23:04

0
0
3350/servo 1800,8/servo 860,8/2
0
0
UV/VIS
1
1
1
CommonBeamDepol,RBeamAtt,SBeamAtt,uv/vis/nir detector, TDS WB InGaAs Detector
0
0
0
0
Program
Program
3350/servo 1800,8/servo 860,8/2
3350/0,2 1800,8/0,2 860,8/0,2
3350/0,2 1800,8/0,2 860,8/0,2
0
3350/1,00 1800,8/1,00
 
 
 
0
 
860,8
319,2
1800,8 860,8
Front
100
on
S:100 R:100
 
0
0
0
 
0
 
 
 
0
 
 
0
0
0
0
0
 
 
 
 
0
0


0
0
#HDR
-1
-1
#GR
nm
%T
1.0
0.0
1000,000000
-10,000000
81
8
5,824058
0,266602
#DATA
1000,000000	3,552836
990,000000	3,596627
980,000000	3,643641
970,000000	3,693581
960,000000	3,746566
950,000000	3,805924
940,000000	3,871138
930,000000	3,943428
920,000000	4,020237
910,000000	4,102342
900,000000	4,188603
890,000000	4,276682
880,000000	4,360297
870,000000	4,446363
860,000000	4,973718
850,000000	5,010236
840,000000	5,069365
830,000000	5,152408
820,000000	5,230371
810,000000	5,319661
800,000000	5,392626
790,000000	5,456273
780,000000	5,518916
770,000000	5,571691
760,000000	5,632445
750,000000	5,691016
740,000000	5,746547
730,000000	5,783674
720,000000	5,802461
710,000000	5,808304
700,000000	5,816411
690,000000	5,824058
680,000000	5,812679
670,000000	5,776349
660,000000	5,723099
650,000000	5,670188
640,000000	5,619238
630,000000	5,553012
620,000000	5,459667
610,000000	5,358131
600,000000	5,279359
590,000000	5,199272
580,000000	5,105310
570,000000	5,020416
560,000000	4,968166
550,000000	4,926772
540,000000	4,900204
530,000000	4,909640
520,000000	4,933575
510,000000	4,998751
500,000000	5,098964
490,000000	5,205972
480,000000	5,312679
470,000000	5,401719
460,000000	5,436252
450,000000	5,331528
440,000000	5,143048
430,000000	4,828348
420,000000	4,049746
410,000000	2,863421
400,000000	2,553753
390,000000	2,429062
380,000000	2,348489
370,000000	2,237865
360,000000	2,081994
350,000000	1,814980
340,000000	1,579169
330,000000	1,407781
320,000000	1,227696
310,000000	1,162595
300,000000	1,131447
290,000000	1,042450
280,000000	0,707915
270,000000	0,304854
260,000000	0,266602
250,000000	0,267096
240,000000	0,268487
230,000000	0,280200
220,000000	0,278329
210,000000	0,288971
200,000000	0,320132
