PE UV       SUBTECH     SPECTRUM    ASCII       PEDS        4.00        
   -1
ug11.Sample.asc
22/03/18
14:22:47.00
22/03/18
14:22:47.00
Administrator

200,000000
1
Lambda 1050
1050L1808311
PerkinElmer UV WinLab 6.4.0.973 / 2.02.11 Lambda 900 UV/VIS/NIR, May 23 2018 11:23:04

0
0
3350/servo 1800,8/servo 860,8/2
0
0
UV/VIS
1
1
1
CommonBeamDepol,RBeamAtt,SBeamAtt,uv/vis/nir detector, TDS WB InGaAs Detector
0
0
0
0
Program
Program
3350/servo 1800,8/servo 860,8/2
3350/0,2 1800,8/0,2 860,8/0,2
3350/0,2 1800,8/0,2 860,8/0,2
0
3350/1,00 1800,8/1,00
 
 
 
0
 
860,8
319,2
1800,8 860,8
Front
100
on
S:100 R:100
 
0
0
0
 
0
 
 
 
0
 
 
0
0
0
0
0
 
 
 
 
0
0


0
0
#HDR
-1
-1
#GR
nm
%T
1.0
0.0
1000,000000
-10,000000
81
8
72,472512
-0,052827
#DATA
1000,000000	0,036730
990,000000	0,025393
980,000000	0,017174
970,000000	0,011732
960,000000	0,007676
950,000000	0,004658
940,000000	0,003844
930,000000	0,003379
920,000000	0,001634
910,000000	0,001519
900,000000	0,003857
890,000000	0,003153
880,000000	0,000816
870,000000	0,000813
860,000000	-0,033697
850,000000	-0,052827
840,000000	-0,037567
830,000000	-0,018774
820,000000	-0,003043
810,000000	0,012336
800,000000	0,025655
790,000000	0,056394
780,000000	0,125427
770,000000	0,278248
760,000000	0,604862
750,000000	1,252640
740,000000	2,423490
730,000000	4,241819
720,000000	6,094079
710,000000	6,051047
700,000000	4,029338
690,000000	1,616016
680,000000	0,235367
670,000000	0,003636
660,000000	-0,007154
650,000000	-0,006451
640,000000	-0,006679
630,000000	-0,007727
620,000000	-0,005963
610,000000	-0,007240
600,000000	-0,007346
590,000000	-0,004425
580,000000	-0,007209
570,000000	-0,005805
560,000000	-0,003465
550,000000	-0,011202
540,000000	-0,009846
530,000000	-0,008794
520,000000	-0,003621
510,000000	0,011306
500,000000	0,014529
490,000000	-0,001327
480,000000	-0,025261
470,000000	-0,001342
460,000000	0,012910
450,000000	0,008956
440,000000	-0,004460
430,000000	-0,001690
420,000000	-0,000121
410,000000	0,001092
400,000000	0,021686
390,000000	1,334668
380,000000	18,722778
370,000000	47,400676
360,000000	62,897959
350,000000	69,157029
340,000000	71,594041
330,000000	72,472512
320,000000	72,041142
310,000000	69,764376
300,000000	66,403443
290,000000	59,272064
280,000000	45,486729
270,000000	25,946638
260,000000	8,201241
250,000000	0,457349
240,000000	-0,002275
230,000000	0,001487
220,000000	0,002652
210,000000	0,004406
200,000000	0,014505
