PE UV       SUBTECH     SPECTRUM    ASCII       PEDS        4.00        
   -1
ug11_fine2.Sample.asc
22/03/18
14:40:28.00
22/03/18
14:40:28.00
Administrator

650,000000
1
Lambda 1050
1050L1808311
PerkinElmer UV WinLab 6.4.0.973 / 2.02.11 Lambda 900 UV/VIS/NIR, May 23 2018 11:23:04

0
0
3350/servo 1800,8/servo 860,8/2
0
0
UV/VIS
1
1
1
CommonBeamDepol,RBeamAtt,SBeamAtt,uv/vis/nir detector, TDS WB InGaAs Detector
0
0
0
0
Program
 
0
3350/0,2 1800,8/0,2 860,8/0,2
0
0
0
 
 
 
0
 
860,8
319,2
1800,8 860,8
Front
100
on
S:100 R:100
 
0
0
0
 
0
 
 
 
0
 
 
0
0
0
0
0
 
 
 
 
0
0


0
0
#HDR
-1
-1
#GR
nm
%T
1.0
0.0
800,000000
-0,500000
301
8
5,929020
-0,004339
#DATA
800,000000	0,026811
799,500000	0,029001
799,000000	0,029710
798,500000	0,030989
798,000000	0,030290
797,500000	0,034813
797,000000	0,035048
796,500000	0,035277
796,000000	0,037134
795,500000	0,037257
795,000000	0,038404
794,500000	0,042127
794,000000	0,043749
793,500000	0,047231
793,000000	0,046174
792,500000	0,048151
792,000000	0,047925
791,500000	0,051522
791,000000	0,053017
790,500000	0,054854
790,000000	0,057984
789,500000	0,058232
789,000000	0,060888
788,500000	0,064022
788,000000	0,066230
787,500000	0,067859
787,000000	0,069829
786,500000	0,073887
786,000000	0,075843
785,500000	0,079902
785,000000	0,083631
784,500000	0,085708
784,000000	0,089301
783,500000	0,092331
783,000000	0,094775
782,500000	0,099847
782,000000	0,102999
781,500000	0,108431
781,000000	0,112849
780,500000	0,118199
780,000000	0,122127
779,500000	0,125256
779,000000	0,129191
778,500000	0,133838
778,000000	0,141368
777,500000	0,145432
777,000000	0,152987
776,500000	0,159256
776,000000	0,164214
775,500000	0,170871
775,000000	0,176700
774,500000	0,185626
774,000000	0,191202
773,500000	0,198010
773,000000	0,204998
772,500000	0,214053
772,000000	0,224159
771,500000	0,231702
771,000000	0,239519
770,500000	0,253807
770,000000	0,260788
769,500000	0,267866
769,000000	0,280088
768,500000	0,292170
768,000000	0,302961
767,500000	0,313503
767,000000	0,326846
766,500000	0,340887
766,000000	0,354089
765,500000	0,367478
765,000000	0,382657
764,500000	0,398359
764,000000	0,412265
763,500000	0,427647
763,000000	0,446127
762,500000	0,465643
762,000000	0,482207
761,500000	0,501216
761,000000	0,520131
760,500000	0,540114
760,000000	0,559484
759,500000	0,580647
759,000000	0,603017
758,500000	0,625800
758,000000	0,647462
757,500000	0,672923
757,000000	0,699160
756,500000	0,724351
756,000000	0,751649
755,500000	0,780718
755,000000	0,809771
754,500000	0,838150
754,000000	0,868856
753,500000	0,902279
753,000000	0,935061
752,500000	0,968989
752,000000	1,003057
751,500000	1,037399
751,000000	1,075843
750,500000	1,114551
750,000000	1,152788
749,500000	1,193218
749,000000	1,234350
748,500000	1,276967
748,000000	1,322128
747,500000	1,367403
747,000000	1,413761
746,500000	1,464609
746,000000	1,514454
745,500000	1,564359
745,000000	1,618568
744,500000	1,672804
744,000000	1,727558
743,500000	1,785211
743,000000	1,843729
742,500000	1,905419
742,000000	1,967648
741,500000	2,030823
741,000000	2,094616
740,500000	2,161584
740,000000	2,230020
739,500000	2,298500
739,000000	2,370766
738,500000	2,443358
738,000000	2,517634
737,500000	2,596172
737,000000	2,674770
736,500000	2,751931
736,000000	2,833934
735,500000	2,919543
735,000000	3,000613
734,500000	3,085533
734,000000	3,174065
733,500000	3,260701
733,000000	3,350770
732,500000	3,442220
732,000000	3,531361
731,500000	3,622272
731,000000	3,716661
730,500000	3,809323
730,000000	3,903105
729,500000	3,997905
729,000000	4,089245
728,500000	4,182897
728,000000	4,276392
727,500000	4,371740
727,000000	4,468179
726,500000	4,559760
726,000000	4,649972
725,500000	4,739643
725,000000	4,829118
724,500000	4,921641
724,000000	5,010785
723,500000	5,093796
723,000000	5,176104
722,500000	5,258790
722,000000	5,337539
721,500000	5,410208
721,000000	5,482007
720,500000	5,548640
720,000000	5,607561
719,500000	5,665083
719,000000	5,718476
718,500000	5,765725
718,000000	5,808976
717,500000	5,847578
717,000000	5,875774
716,500000	5,898559
716,000000	5,916244
715,500000	5,926806
715,000000	5,929020
714,500000	5,924055
714,000000	5,912652
713,500000	5,892663
713,000000	5,868634
712,500000	5,837464
712,000000	5,793978
711,500000	5,746305
711,000000	5,695122
710,500000	5,635201
710,000000	5,566265
709,500000	5,494522
709,000000	5,419298
708,500000	5,338893
708,000000	5,254258
707,500000	5,161898
707,000000	5,071801
706,500000	4,980983
706,000000	4,886557
705,500000	4,788721
705,000000	4,691290
704,500000	4,591675
704,000000	4,494856
703,500000	4,398112
703,000000	4,297695
702,500000	4,200327
702,000000	4,104594
701,500000	4,005800
701,000000	3,908645
700,500000	3,814224
700,000000	3,714118
699,500000	3,616646
699,000000	3,516460
698,500000	3,413671
698,000000	3,309370
697,500000	3,200390
697,000000	3,094246
696,500000	2,987670
696,000000	2,877487
695,500000	2,761236
695,000000	2,646180
694,500000	2,529073
694,000000	2,410613
693,500000	2,290974
693,000000	2,171928
692,500000	2,053715
692,000000	1,938067
691,500000	1,820164
691,000000	1,708245
690,500000	1,594288
690,000000	1,487028
689,500000	1,383589
689,000000	1,283792
688,500000	1,187205
688,000000	1,095918
687,500000	1,010740
687,000000	0,929596
686,500000	0,849907
686,000000	0,777940
685,500000	0,708794
685,000000	0,644695
684,500000	0,587071
684,000000	0,532866
683,500000	0,479889
683,000000	0,434497
682,500000	0,388964
682,000000	0,349732
681,500000	0,311602
681,000000	0,279610
680,500000	0,247737
680,000000	0,219023
679,500000	0,193682
679,000000	0,170604
678,500000	0,149071
678,000000	0,129864
677,500000	0,113234
677,000000	0,097764
676,500000	0,083237
676,000000	0,072223
675,500000	0,061680
675,000000	0,052526
674,500000	0,043149
674,000000	0,034121
673,500000	0,030134
673,000000	0,024390
672,500000	0,019818
672,000000	0,015596
671,500000	0,013133
671,000000	0,009030
670,500000	0,005746
670,000000	0,007153
669,500000	0,006450
669,000000	0,001759
668,500000	0,000938
668,000000	0,001055
667,500000	-0,000000
667,000000	-0,000117
666,500000	-0,001056
666,000000	-0,000586
665,500000	-0,000704
665,000000	-0,001173
664,500000	-0,000469
664,000000	-0,003519
663,500000	-0,003401
663,000000	-0,001642
662,500000	-0,002932
662,000000	-0,001290
661,500000	-0,001759
661,000000	-0,000821
660,500000	-0,000821
660,000000	-0,002580
659,500000	-0,002229
659,000000	-0,000235
658,500000	-0,000586
658,000000	0,000117
657,500000	-0,003636
657,000000	-0,000938
656,500000	-0,001525
656,000000	-0,002228
655,500000	-0,001525
655,000000	-0,004339
654,500000	-0,002580
654,000000	-0,004339
653,500000	-0,003401
653,000000	-0,000821
652,500000	-0,002345
652,000000	-0,001173
651,500000	-0,003284
651,000000	-0,001642
650,500000	-0,001525
650,000000	-0,003284
