PE UV       SUBTECH     SPECTRUM    ASCII       PEDS        4.00        
   -1
wg305.Sample.asc
22/03/18
15:01:08.00
22/03/18
15:01:08.00
Administrator

200,000000
1
Lambda 1050
1050L1808311
PerkinElmer UV WinLab 6.4.0.973 / 2.02.11 Lambda 900 UV/VIS/NIR, May 23 2018 11:23:04

0
0
3350/servo 1800,8/servo 860,8/2
0
0
UV/VIS
1
1
1
CommonBeamDepol,RBeamAtt,SBeamAtt,uv/vis/nir detector, TDS WB InGaAs Detector
0
0
0
0
Program
Program
3350/servo 1800,8/servo 860,8/2
3350/0,2 1800,8/0,2 860,8/0,2
3350/0,2 1800,8/0,2 860,8/0,2
0
3350/1,00 1800,8/1,00
 
 
 
0
 
860,8
319,2
1800,8 860,8
Front
100
on
S:100 R:100
 
0
0
0
 
0
 
 
 
0
 
 
0
0
0
0
0
 
 
 
 
0
0


0
0
#HDR
-1
-1
#GR
nm
%T
1.0
0.0
1000,000000
-10,000000
81
8
90,382559
-0,002235
#DATA
1000,000000	90,382559
990,000000	90,351523
980,000000	90,285907
970,000000	90,217435
960,000000	90,162415
950,000000	90,118873
940,000000	90,055615
930,000000	89,987975
920,000000	89,938378
910,000000	89,871822
900,000000	89,800731
890,000000	89,720411
880,000000	89,657363
870,000000	89,584185
860,000000	89,332820
850,000000	89,193587
840,000000	89,141052
830,000000	89,037378
820,000000	88,953177
810,000000	88,811499
800,000000	88,688986
790,000000	88,609034
780,000000	88,486565
770,000000	88,432046
760,000000	88,308361
750,000000	88,205460
740,000000	88,092339
730,000000	87,979199
720,000000	87,894145
710,000000	87,745738
700,000000	87,658762
690,000000	87,513111
680,000000	87,364485
670,000000	87,204796
660,000000	87,043273
650,000000	86,890528
640,000000	86,746694
630,000000	86,588474
620,000000	86,426135
610,000000	86,260834
600,000000	86,105349
590,000000	85,921441
580,000000	85,708040
570,000000	85,483727
560,000000	85,288519
550,000000	85,065514
540,000000	84,801306
530,000000	84,504322
520,000000	84,196532
510,000000	83,961081
500,000000	83,710699
490,000000	83,407260
480,000000	83,043126
470,000000	82,662286
460,000000	82,325817
450,000000	81,927561
440,000000	81,540528
430,000000	81,089303
420,000000	80,641185
410,000000	80,148255
400,000000	79,616395
390,000000	79,022182
380,000000	78,314112
370,000000	77,688042
360,000000	76,810813
350,000000	75,689801
340,000000	73,952756
330,000000	70,569948
320,000000	63,104754
310,000000	46,784655
300,000000	20,910438
290,000000	2,413235
280,000000	0,003939
270,000000	-0,002235
260,000000	0,004483
250,000000	0,003180
240,000000	0,002677
230,000000	0,005136
220,000000	0,003050
210,000000	0,011144
200,000000	0,018997
