PE UV       SUBTECH     SPECTRUM    ASCII       PEDS        4.00        
   -1
wg345.Sample.asc
22/03/18
14:58:24.00
22/03/18
14:58:24.00
Administrator

200,000000
1
Lambda 1050
1050L1808311
PerkinElmer UV WinLab 6.4.0.973 / 2.02.11 Lambda 900 UV/VIS/NIR, May 23 2018 11:23:04

0
0
3350/servo 1800,8/servo 860,8/2
0
0
UV/VIS
1
1
1
CommonBeamDepol,RBeamAtt,SBeamAtt,uv/vis/nir detector, TDS WB InGaAs Detector
0
0
0
0
Program
Program
3350/servo 1800,8/servo 860,8/2
3350/0,2 1800,8/0,2 860,8/0,2
3350/0,2 1800,8/0,2 860,8/0,2
0
3350/1,00 1800,8/1,00
 
 
 
0
 
860,8
319,2
1800,8 860,8
Front
100
on
S:100 R:100
 
0
0
0
 
0
 
 
 
0
 
 
0
0
0
0
0
 
 
 
 
0
0


0
0
#HDR
-1
-1
#GR
nm
%T
1.0
0.0
1000,000000
-10,000000
81
8
89,907028
-0,008637
#DATA
1000,000000	89,542174
990,000000	89,546488
980,000000	89,541026
970,000000	89,540817
960,000000	89,553534
950,000000	89,572890
940,000000	89,573674
930,000000	89,575619
920,000000	89,588488
910,000000	89,578488
900,000000	89,573193
890,000000	89,578077
880,000000	89,613073
870,000000	89,618571
860,000000	89,428862
850,000000	89,486186
840,000000	89,507118
830,000000	89,514572
820,000000	89,506835
810,000000	89,470769
800,000000	89,486045
790,000000	89,490797
780,000000	89,526996
770,000000	89,531914
760,000000	89,537488
750,000000	89,532182
740,000000	89,542451
730,000000	89,574443
720,000000	89,578007
710,000000	89,598627
700,000000	89,627327
690,000000	89,634243
680,000000	89,632590
670,000000	89,634098
660,000000	89,636589
650,000000	89,657652
640,000000	89,676366
630,000000	89,704507
620,000000	89,708226
610,000000	89,760055
600,000000	89,753527
590,000000	89,796268
580,000000	89,810195
570,000000	89,816944
560,000000	89,813014
550,000000	89,859826
540,000000	89,880935
530,000000	89,902581
520,000000	89,907028
510,000000	89,886080
500,000000	89,768458
490,000000	89,732934
480,000000	89,733091
470,000000	89,703430
460,000000	89,666188
450,000000	89,645331
440,000000	89,549598
430,000000	89,429396
420,000000	89,204266
410,000000	88,868477
400,000000	88,253297
390,000000	86,976947
380,000000	84,196212
370,000000	77,461006
360,000000	61,704676
350,000000	31,619466
340,000000	4,242762
330,000000	0,024901
320,000000	0,014251
310,000000	-0,000776
300,000000	-0,004162
290,000000	-0,008637
280,000000	-0,005909
270,000000	-0,005521
260,000000	-0,002505
250,000000	-0,002385
240,000000	-0,004551
230,000000	-0,000541
220,000000	-0,001724
210,000000	0,006090
200,000000	0,012579
