PE UV       SUBTECH     SPECTRUM    ASCII       PEDS        4.00        
   -1
100% T R.Sample.asc
22/01/20
15:00:37.00
22/01/20
15:00:37.00
Administrator

250,000000
1
Lambda 1050
1050L1808311
PerkinElmer UV WinLab 6.4.0.973 / 2.02.11 Lambda 900 UV/VIS/NIR, May 23 2018 11:23:04

0
0
3350/servo 860,8/2
0
0
UV/VIS
1
1
1
CommonBeamDepol,RBeamAtt,SBeamAtt,60mm sphere
0
0
0
0
Program
Program
3350/servo 860,8/2
3350/0,2 860,8/0,2
3350/0,2 860,8/0,2
0
1
 
 
 
0
 
860,8
319,2
860,8
Front
100
on
S:100 R:100
 
0
0
0
 
0
 
 
 
0
 
 
0
0
0
0
0
 
 
 
 
0
0


0
0
#HDR
-1
-1
#GR
nm
%T
1.0
0.0
2000,000000
-10,000000
176
8
102,814158
99,139925
#DATA
2000,000000	100,347547
1990,000000	99,139925
1980,000000	99,862026
1970,000000	100,650521
1960,000000	100,449771
1950,000000	100,446992
1940,000000	100,597784
1930,000000	100,339770
1920,000000	100,329134
1910,000000	100,606504
1900,000000	99,900345
1890,000000	99,765375
1880,000000	100,066535
1870,000000	99,656151
1860,000000	99,751128
1850,000000	99,952910
1840,000000	100,332673
1830,000000	100,371694
1820,000000	99,943561
1810,000000	99,632379
1800,000000	99,823871
1790,000000	100,117302
1780,000000	99,987931
1770,000000	99,495342
1760,000000	99,822772
1750,000000	100,116514
1740,000000	100,100836
1730,000000	100,195421
1720,000000	99,573275
1710,000000	100,146793
1700,000000	100,146756
1690,000000	99,729584
1680,000000	100,106501
1670,000000	99,763413
1660,000000	100,362542
1650,000000	99,839153
1640,000000	100,057343
1630,000000	99,790348
1620,000000	100,425380
1610,000000	99,876375
1600,000000	100,415344
1590,000000	100,235683
1580,000000	99,791449
1570,000000	99,873274
1560,000000	100,062288
1550,000000	99,776828
1540,000000	99,837235
1530,000000	100,012940
1520,000000	99,785892
1510,000000	99,927459
1500,000000	99,967970
1490,000000	99,922394
1480,000000	100,000825
1470,000000	100,114264
1460,000000	99,831527
1450,000000	99,921057
1440,000000	100,179312
1430,000000	99,793664
1420,000000	99,844579
1410,000000	100,044244
1400,000000	99,915817
1390,000000	99,986519
1380,000000	100,007895
1370,000000	100,276885
1360,000000	100,084624
1350,000000	99,978005
1340,000000	99,905360
1330,000000	99,991192
1320,000000	100,028037
1310,000000	100,114434
1300,000000	100,010540
1290,000000	99,987736
1280,000000	100,006233
1270,000000	100,098083
1260,000000	99,893777
1250,000000	99,829563
1240,000000	99,963764
1230,000000	99,957059
1220,000000	100,018957
1210,000000	99,983791
1200,000000	99,958910
1190,000000	99,852020
1180,000000	99,920525
1170,000000	99,807151
1160,000000	99,809164
1150,000000	99,868204
1140,000000	99,864310
1130,000000	99,721352
1120,000000	99,861047
1110,000000	100,113686
1100,000000	100,083315
1090,000000	100,149296
1080,000000	100,068440
1070,000000	100,123080
1060,000000	100,030538
1050,000000	99,948533
1040,000000	100,083981
1030,000000	100,049911
1020,000000	99,778213
1010,000000	99,735869
1000,000000	99,984114
990,000000	99,944660
980,000000	99,912663
970,000000	99,926310
960,000000	100,028135
950,000000	100,070326
940,000000	100,174353
930,000000	100,215918
920,000000	100,431823
910,000000	100,290819
900,000000	99,894142
890,000000	99,970302
880,000000	100,452371
870,000000	100,433084
860,000000	100,761417
850,000000	100,959801
840,000000	101,891322
830,000000	101,134702
820,000000	100,489265
810,000000	100,564195
800,000000	100,140771
790,000000	99,840155
780,000000	99,971571
770,000000	100,640062
760,000000	101,085489
750,000000	100,526180
740,000000	100,093899
730,000000	100,194161
720,000000	99,956974
710,000000	100,040623
700,000000	100,394324
690,000000	100,035629
680,000000	99,972374
670,000000	100,410714
660,000000	100,397914
650,000000	100,036973
640,000000	99,733173
630,000000	99,989400
620,000000	100,059354
610,000000	100,073756
600,000000	99,771928
590,000000	99,657091
580,000000	100,059661
570,000000	100,494022
560,000000	100,127768
550,000000	100,049345
540,000000	100,266202
530,000000	100,138947
520,000000	99,890879
510,000000	99,651798
500,000000	99,791492
490,000000	100,300205
480,000000	100,262832
470,000000	100,021116
460,000000	99,907005
450,000000	99,809024
440,000000	99,640434
430,000000	99,651126
420,000000	99,663996
410,000000	99,841907
400,000000	100,078536
390,000000	99,799958
380,000000	99,230422
370,000000	100,841912
360,000000	102,420617
350,000000	100,242979
340,000000	101,621044
330,000000	102,814158
320,000000	101,291160
310,000000	99,382833
300,000000	99,832966
290,000000	99,458233
280,000000	100,204043
270,000000	100,177367
260,000000	99,703069
250,000000	99,578161
