PE UV       SUBTECH     SPECTRUM    ASCII       PEDS        4.00        
   -1
amostraB_limpa.Sample.asc
22/01/20
15:25:12.00
22/01/20
15:25:12.00
Administrator

200,000000
1
Lambda 1050
1050L1808311
PerkinElmer UV WinLab 6.4.0.973 / 2.02.11 Lambda 900 UV/VIS/NIR, May 23 2018 11:23:04

0
0
3350/servo 860,8/2
0
0
UV/VIS
1
1
1
CommonBeamDepol,RBeamAtt,SBeamAtt,60mm sphere
0
0
0
0
Program
 
0
3350/0,2 860,8/0,2
0
0
0
 
 
 
0
 
860,8
319,2
860,8
Front
100
on
S:100 R:100
 
0
0
0
 
0
 
 
 
0
 
 
0
0
0
0
0
 
 
 
 
0
0


0
0
#HDR
-1
-1
#GR
nm
%T
1.0
0.0
600,000000
-1,000000
401
8
94,205902
85,381059
#DATA
600,000000	91,262775
599,000000	91,099077
598,000000	91,357249
597,000000	91,259736
596,000000	91,216619
595,000000	91,532620
594,000000	91,167665
593,000000	91,341026
592,000000	91,318535
591,000000	91,048517
590,000000	91,415980
589,000000	91,177279
588,000000	90,914076
587,000000	91,189590
586,000000	91,398335
585,000000	90,700694
584,000000	91,406973
583,000000	91,547300
582,000000	91,333731
581,000000	91,422202
580,000000	90,920957
579,000000	91,107635
578,000000	91,144696
577,000000	91,179914
576,000000	91,104904
575,000000	91,046207
574,000000	91,073967
573,000000	91,240690
572,000000	91,219241
571,000000	91,140849
570,000000	91,208059
569,000000	91,161527
568,000000	91,228196
567,000000	91,244574
566,000000	91,369504
565,000000	91,533925
564,000000	91,574543
563,000000	91,424372
562,000000	91,736743
561,000000	91,707287
560,000000	91,561977
559,000000	91,621749
558,000000	91,445332
557,000000	91,301157
556,000000	91,660137
555,000000	91,609651
554,000000	91,398776
553,000000	91,492835
552,000000	91,628144
551,000000	91,388667
550,000000	91,557790
549,000000	91,797639
548,000000	91,684892
547,000000	91,596672
546,000000	91,527793
545,000000	91,394837
544,000000	91,447004
543,000000	91,771979
542,000000	91,898994
541,000000	91,947570
540,000000	91,739147
539,000000	91,612626
538,000000	91,561045
537,000000	91,623840
536,000000	91,585029
535,000000	91,540437
534,000000	91,604916
533,000000	91,618051
532,000000	91,513625
531,000000	91,583954
530,000000	91,704971
529,000000	91,697976
528,000000	91,466132
527,000000	91,420381
526,000000	91,588316
525,000000	91,702453
524,000000	91,673357
523,000000	91,647283
522,000000	91,600324
521,000000	91,655053
520,000000	91,643292
519,000000	91,555163
518,000000	91,550450
517,000000	91,647406
516,000000	91,563019
515,000000	91,564421
514,000000	91,656981
513,000000	91,526526
512,000000	91,492435
511,000000	91,594109
510,000000	91,614845
509,000000	91,593877
508,000000	91,259532
507,000000	91,388404
506,000000	91,657215
505,000000	91,533778
504,000000	91,721874
503,000000	91,546710
502,000000	91,454732
501,000000	91,258781
500,000000	91,235402
499,000000	91,366913
498,000000	91,571024
497,000000	91,563051
496,000000	91,497805
495,000000	91,660790
494,000000	91,551778
493,000000	91,446701
492,000000	91,349213
491,000000	91,212601
490,000000	91,543126
489,000000	91,664789
488,000000	91,306510
487,000000	91,379481
486,000000	91,559772
485,000000	91,386639
484,000000	91,450503
483,000000	91,541887
482,000000	91,401028
481,000000	91,219639
480,000000	91,539892
479,000000	91,572094
478,000000	91,585426
477,000000	91,512265
476,000000	91,556413
475,000000	91,668724
474,000000	91,597229
473,000000	91,576638
472,000000	91,555361
471,000000	91,501037
470,000000	91,428702
469,000000	91,556288
468,000000	91,742812
467,000000	91,610162
466,000000	91,444468
465,000000	91,450805
464,000000	91,464987
463,000000	91,439416
462,000000	91,354961
461,000000	91,367479
460,000000	91,183232
459,000000	90,993650
458,000000	91,095333
457,000000	90,995661
456,000000	91,052784
455,000000	91,189061
454,000000	91,078648
453,000000	90,843938
452,000000	90,716726
451,000000	90,722201
450,000000	90,995197
449,000000	91,197509
448,000000	91,049792
447,000000	90,822056
446,000000	90,743892
445,000000	90,990114
444,000000	91,110021
443,000000	90,864573
442,000000	91,077609
441,000000	90,910855
440,000000	90,804249
439,000000	90,750961
438,000000	90,633662
437,000000	91,157834
436,000000	91,141030
435,000000	90,855411
434,000000	90,579258
433,000000	90,608009
432,000000	90,919220
431,000000	90,798419
430,000000	90,726252
429,000000	90,927844
428,000000	90,803483
427,000000	90,877244
426,000000	91,097066
425,000000	91,169164
424,000000	90,867566
423,000000	90,965660
422,000000	91,061434
421,000000	90,921498
420,000000	91,031483
419,000000	91,331148
418,000000	91,417269
417,000000	91,208835
416,000000	91,105422
415,000000	91,011233
414,000000	91,081867
413,000000	91,440297
412,000000	91,157481
411,000000	91,033304
410,000000	91,325058
409,000000	91,075932
408,000000	91,013394
407,000000	91,165855
406,000000	91,273265
405,000000	91,285267
404,000000	91,180681
403,000000	91,337191
402,000000	90,966547
401,000000	91,196510
400,000000	91,261745
399,000000	90,755860
398,000000	90,730619
397,000000	90,440111
396,000000	90,482651
395,000000	90,586614
394,000000	90,662314
393,000000	91,200589
392,000000	90,856510
391,000000	91,130136
390,000000	90,870890
389,000000	90,299577
388,000000	90,689603
387,000000	90,792066
386,000000	90,647486
385,000000	91,321332
384,000000	91,442648
383,000000	91,168050
382,000000	90,130021
381,000000	90,064747
380,000000	90,599841
379,000000	92,634494
378,000000	93,127470
377,000000	90,677708
376,000000	88,154187
375,000000	91,675973
374,000000	92,006862
373,000000	92,829397
372,000000	89,826720
371,000000	88,729768
370,000000	89,274063
369,000000	89,616502
368,000000	90,742293
367,000000	92,161056
366,000000	88,429168
365,000000	90,964251
364,000000	93,666092
363,000000	93,124782
362,000000	92,467578
361,000000	89,022774
360,000000	88,328687
359,000000	93,464660
358,000000	91,991711
357,000000	89,575670
356,000000	90,740387
355,000000	90,737627
354,000000	87,985798
353,000000	89,897155
352,000000	90,152403
351,000000	90,750548
350,000000	89,519943
349,000000	89,888195
348,000000	90,749781
347,000000	87,092433
346,000000	91,136763
345,000000	87,699072
344,000000	90,326818
343,000000	92,329255
342,000000	89,942445
341,000000	88,977703
340,000000	90,364748
339,000000	88,561964
338,000000	89,859390
337,000000	92,910060
336,000000	87,288640
335,000000	91,607755
334,000000	90,586179
333,000000	91,940425
332,000000	90,001167
331,000000	89,272904
330,000000	88,489911
329,000000	94,205902
328,000000	92,042461
327,000000	89,588280
326,000000	91,124223
325,000000	88,652623
324,000000	91,828748
323,000000	92,230483
322,000000	92,259027
321,000000	90,764678
320,000000	89,612473
319,000000	90,496160
318,000000	90,370588
317,000000	90,803311
316,000000	91,500725
315,000000	90,324810
314,000000	91,070779
313,000000	90,173106
312,000000	89,584385
311,000000	89,753433
310,000000	89,727559
309,000000	90,393674
308,000000	89,667588
307,000000	89,871484
306,000000	90,833290
305,000000	90,654485
304,000000	90,686530
303,000000	90,500648
302,000000	90,532332
301,000000	90,486341
300,000000	89,692823
299,000000	90,838432
298,000000	89,687219
297,000000	90,222853
296,000000	89,960419
295,000000	90,763951
294,000000	89,576572
293,000000	90,318185
292,000000	91,307548
291,000000	90,308425
290,000000	90,308693
289,000000	90,471388
288,000000	90,346044
287,000000	90,072255
286,000000	90,308467
285,000000	89,394936
284,000000	90,014087
283,000000	89,067999
282,000000	90,702103
281,000000	89,886323
280,000000	90,275694
279,000000	90,017443
278,000000	90,401230
277,000000	90,248408
276,000000	89,668634
275,000000	90,244146
274,000000	90,271048
273,000000	89,917712
272,000000	90,426093
271,000000	90,054585
270,000000	89,619499
269,000000	90,721653
268,000000	89,842014
267,000000	89,846464
266,000000	90,256711
265,000000	89,912820
264,000000	90,009955
263,000000	89,963980
262,000000	89,597896
261,000000	90,021980
260,000000	90,241326
259,000000	89,803346
258,000000	89,692707
257,000000	89,387962
256,000000	89,721266
255,000000	89,696444
254,000000	89,343242
253,000000	89,701804
252,000000	90,124018
251,000000	89,870110
250,000000	89,301170
249,000000	89,054559
248,000000	89,468906
247,000000	89,429108
246,000000	89,646684
245,000000	89,377953
244,000000	89,176870
243,000000	89,554335
242,000000	89,495605
241,000000	89,033706
240,000000	88,948172
239,000000	89,166122
238,000000	88,844959
237,000000	89,135374
236,000000	89,248500
235,000000	88,739404
234,000000	88,712799
233,000000	89,397710
232,000000	89,275119
231,000000	88,976484
230,000000	88,826638
229,000000	88,403317
228,000000	87,808537
227,000000	87,940308
226,000000	88,346782
225,000000	88,572063
224,000000	89,482936
223,000000	89,159310
222,000000	88,910306
221,000000	88,872626
220,000000	87,513381
219,000000	88,344140
218,000000	88,382362
217,000000	87,921331
216,000000	88,382074
215,000000	87,551154
214,000000	87,813579
213,000000	88,490832
212,000000	88,298428
211,000000	87,869266
210,000000	87,876360
209,000000	88,990425
208,000000	87,363733
207,000000	87,498130
206,000000	87,348702
205,000000	87,571622
204,000000	87,693952
203,000000	86,528705
202,000000	85,623250
201,000000	86,208297
200,000000	85,381059
