PE UV       SUBTECH     SPECTRUM    ASCII       PEDS        4.00        
   -1
amostraB.Sample.asc
22/01/20
15:13:15.00
22/01/20
15:13:15.00
Administrator

200,000000
1
Lambda 1050
1050L1808311
PerkinElmer UV WinLab 6.4.0.973 / 2.02.11 Lambda 900 UV/VIS/NIR, May 23 2018 11:23:04

0
0
3350/servo 860,8/2
0
0
UV/VIS
1
1
1
CommonBeamDepol,RBeamAtt,SBeamAtt,60mm sphere
0
0
0
0
Program
 
0
3350/0,2 860,8/0,2
0
0
0
 
 
 
0
 
860,8
319,2
860,8
Front
100
on
S:100 R:100
 
0
0
0
 
0
 
 
 
0
 
 
0
0
0
0
0
 
 
 
 
0
0


0
0
#HDR
-1
-1
#GR
nm
%T
1.0
0.0
600,000000
-1,000000
401
8
369,278907
53,572064
#DATA
600,000000	73,832314
599,000000	73,771788
598,000000	73,731088
597,000000	73,949466
596,000000	73,846445
595,000000	74,246228
594,000000	73,946667
593,000000	74,024486
592,000000	73,821602
591,000000	73,698886
590,000000	73,994712
589,000000	73,726147
588,000000	73,732104
587,000000	73,985211
586,000000	74,037274
585,000000	73,446437
584,000000	73,803103
583,000000	73,786576
582,000000	73,705014
581,000000	73,886434
580,000000	73,427281
579,000000	73,713757
578,000000	73,814998
577,000000	73,656801
576,000000	73,300850
575,000000	73,465438
574,000000	73,377235
573,000000	73,517879
572,000000	73,664511
571,000000	73,706138
570,000000	73,483748
569,000000	73,668999
568,000000	73,550295
567,000000	73,648755
566,000000	73,504951
565,000000	73,596047
564,000000	73,807597
563,000000	73,612180
562,000000	73,382137
561,000000	73,613001
560,000000	73,463783
559,000000	73,668098
558,000000	73,287250
557,000000	73,528042
556,000000	73,548024
555,000000	73,351812
554,000000	73,162283
553,000000	73,193178
552,000000	73,507948
551,000000	73,401011
550,000000	73,423483
549,000000	73,543034
548,000000	73,441823
547,000000	73,408568
546,000000	73,322017
545,000000	73,302598
544,000000	73,249563
543,000000	73,433776
542,000000	73,410661
541,000000	73,487382
540,000000	73,327258
539,000000	73,280706
538,000000	73,232009
537,000000	73,195692
536,000000	73,248303
535,000000	73,230618
534,000000	73,160322
533,000000	73,066575
532,000000	72,974636
531,000000	73,118637
530,000000	72,984251
529,000000	73,047762
528,000000	72,902413
527,000000	72,860468
526,000000	73,000894
525,000000	73,048816
524,000000	72,947080
523,000000	73,095257
522,000000	73,000082
521,000000	73,050114
520,000000	73,001667
519,000000	72,882923
518,000000	72,936727
517,000000	72,977094
516,000000	72,830915
515,000000	72,720005
514,000000	72,835713
513,000000	72,790713
512,000000	72,634456
511,000000	72,542029
510,000000	72,585033
509,000000	72,479469
508,000000	72,254580
507,000000	72,070343
506,000000	72,294383
505,000000	72,253645
504,000000	72,167454
503,000000	72,091588
502,000000	72,246968
501,000000	72,155176
500,000000	71,992756
499,000000	71,993312
498,000000	72,180389
497,000000	72,133355
496,000000	72,070334
495,000000	72,134552
494,000000	72,308444
493,000000	72,244137
492,000000	72,087775
491,000000	72,049964
490,000000	72,126529
489,000000	72,244134
488,000000	72,130627
487,000000	72,125754
486,000000	72,221156
485,000000	72,148870
484,000000	72,164238
483,000000	72,156868
482,000000	72,132626
481,000000	72,246947
480,000000	72,223159
479,000000	71,963045
478,000000	72,014728
477,000000	71,933114
476,000000	71,792219
475,000000	71,713891
474,000000	71,729942
473,000000	71,682801
472,000000	71,572952
471,000000	71,495006
470,000000	71,406470
469,000000	71,453180
468,000000	71,494949
467,000000	71,470402
466,000000	71,256935
465,000000	71,061609
464,000000	71,043882
463,000000	70,975404
462,000000	71,010191
461,000000	70,929545
460,000000	70,546628
459,000000	70,527588
458,000000	70,606387
457,000000	70,444254
456,000000	70,375673
455,000000	70,409312
454,000000	70,409764
453,000000	70,314472
452,000000	70,052543
451,000000	70,090196
450,000000	70,377172
449,000000	70,307681
448,000000	70,118119
447,000000	69,905657
446,000000	69,598016
445,000000	69,779773
444,000000	69,982702
443,000000	69,770559
442,000000	69,660143
441,000000	69,480135
440,000000	69,356808
439,000000	69,154926
438,000000	68,770199
437,000000	68,813837
436,000000	68,788094
435,000000	68,471600
434,000000	68,171631
433,000000	67,853108
432,000000	67,695755
431,000000	67,453383
430,000000	67,318305
429,000000	67,009289
428,000000	66,329871
427,000000	65,873513
426,000000	65,228185
425,000000	64,628815
424,000000	63,847044
423,000000	63,287893
422,000000	62,454995
421,000000	61,351096
420,000000	60,492816
419,000000	59,755064
418,000000	58,919569
417,000000	58,058406
416,000000	56,990154
415,000000	56,135592
414,000000	55,611081
413,000000	55,205899
412,000000	54,473922
411,000000	54,164194
410,000000	54,050269
409,000000	53,824264
408,000000	53,572064
407,000000	53,660244
406,000000	53,879802
405,000000	53,774180
404,000000	54,129653
403,000000	54,517316
402,000000	54,432023
401,000000	54,590418
400,000000	55,175957
399,000000	55,316444
398,000000	55,319111
397,000000	55,489451
396,000000	55,910828
395,000000	56,337234
394,000000	56,275120
393,000000	57,013437
392,000000	57,326930
391,000000	57,494212
390,000000	57,835032
389,000000	58,020250
388,000000	58,147483
387,000000	58,391200
386,000000	58,635669
385,000000	59,042712
384,000000	59,503555
383,000000	59,593717
382,000000	59,763058
381,000000	59,817638
380,000000	60,358403
379,000000	63,634292
378,000000	62,725705
377,000000	63,943889
376,000000	60,367536
375,000000	63,095803
374,000000	64,692444
373,000000	64,331822
372,000000	65,204614
371,000000	64,373707
370,000000	64,800234
369,000000	67,601804
368,000000	67,257044
367,000000	70,566506
366,000000	71,738023
365,000000	71,790755
364,000000	74,324790
363,000000	74,839668
362,000000	73,742475
361,000000	73,821357
360,000000	74,852206
359,000000	76,654401
358,000000	78,847047
357,000000	78,153895
356,000000	79,135124
355,000000	79,768411
354,000000	79,178644
353,000000	81,634148
352,000000	82,155538
351,000000	81,450024
350,000000	83,486728
349,000000	82,940447
348,000000	84,576787
347,000000	83,410930
346,000000	84,993761
345,000000	83,078808
344,000000	85,773933
343,000000	90,946374
342,000000	84,430811
341,000000	84,356639
340,000000	86,103385
339,000000	86,044973
338,000000	87,583476
337,000000	88,404371
336,000000	83,394844
335,000000	87,435797
334,000000	82,599183
333,000000	86,655217
332,000000	87,140057
331,000000	83,088309
330,000000	86,478531
329,000000	83,019783
328,000000	87,003793
327,000000	80,719314
326,000000	87,791389
325,000000	84,978341
324,000000	86,203005
323,000000	83,524612
322,000000	88,159052
321,000000	85,138641
320,000000	86,063656
319,000000	84,202590
318,000000	84,916638
317,000000	84,713775
316,000000	84,962030
315,000000	84,801598
314,000000	85,915703
313,000000	85,170748
312,000000	84,331747
311,000000	84,102534
310,000000	85,312685
309,000000	85,355551
308,000000	85,072350
307,000000	86,514346
306,000000	87,614402
305,000000	88,124608
304,000000	89,458371
303,000000	90,174602
302,000000	90,564425
301,000000	89,753704
300,000000	90,815468
299,000000	91,877730
298,000000	92,063313
297,000000	92,624176
296,000000	92,920402
295,000000	93,472245
294,000000	93,836074
293,000000	94,768207
292,000000	96,215655
291,000000	96,226841
290,000000	96,982999
289,000000	98,072469
288,000000	99,899332
287,000000	99,739978
286,000000	100,795281
285,000000	101,128473
284,000000	102,480379
283,000000	101,897009
282,000000	102,614943
281,000000	103,055650
280,000000	103,501313
279,000000	104,481883
278,000000	104,948729
277,000000	104,711356
276,000000	104,429510
275,000000	105,231891
274,000000	105,191185
273,000000	105,826795
272,000000	106,033913
271,000000	106,151557
270,000000	105,443522
269,000000	106,402064
268,000000	106,414731
267,000000	106,523079
266,000000	107,213311
265,000000	108,486100
264,000000	109,489212
263,000000	110,715882
262,000000	111,473396
261,000000	113,179327
260,000000	114,823665
259,000000	115,726271
258,000000	117,297887
257,000000	118,440117
256,000000	119,670857
255,000000	121,822823
254,000000	122,642759
253,000000	124,110241
252,000000	125,694013
251,000000	128,451712
250,000000	129,619397
249,000000	131,633065
248,000000	133,921089
247,000000	134,393670
246,000000	136,494311
245,000000	137,876424
244,000000	140,170961
243,000000	143,092637
242,000000	145,208234
241,000000	148,073739
240,000000	149,084516
239,000000	150,969587
238,000000	153,826481
237,000000	157,597815
236,000000	162,514526
235,000000	166,506448
234,000000	171,918824
233,000000	174,930660
232,000000	178,170226
231,000000	180,447793
230,000000	184,670035
229,000000	187,512410
228,000000	190,564136
227,000000	194,686190
226,000000	200,103109
225,000000	204,238295
224,000000	207,861323
223,000000	211,790544
222,000000	214,401770
221,000000	218,571328
220,000000	219,136257
219,000000	224,461522
218,000000	228,197725
217,000000	230,114120
216,000000	235,429557
215,000000	236,715080
214,000000	242,160274
213,000000	247,908862
212,000000	253,789314
211,000000	256,566450
210,000000	264,987570
209,000000	271,833115
208,000000	276,202576
207,000000	286,662329
206,000000	295,540450
205,000000	305,421208
204,000000	317,119198
203,000000	331,978130
202,000000	343,922794
201,000000	357,844151
200,000000	369,278907
