PE UV       SUBTECH     SPECTRUM    ASCII       PEDS        4.00        
   -1
Branco.Sample.asc
22/01/20
10:38:59.00
22/01/20
10:38:59.00
Administrator

200,000000
1
Lambda 1050
1050L1808311
PerkinElmer UV WinLab 6.4.0.973 / 2.02.11 Lambda 900 UV/VIS/NIR, May 23 2018 11:23:04

0
0
3350/servo 1800,8/servo 860,8/2
0
0
UV/VIS
1
1
1
CommonBeamDepol,RBeamAtt,SBeamAtt,uv/vis/nir detector, TDS WB InGaAs Detector
0
0
0
0
Program
 
0
3350/0,2 1800,8/0,2 860,8/0,2
0
0
0
 
 
 
0
 
860,8
319,2
1800,8 860,8
Front
100
on
S:100 R:100
 
0
0
0
 
0
 
 
 
0
 
 
0
0
0
0
0
 
 
 
 
0
0


0
0
#HDR
-1
-1
#GR
nm
%T
1.0
0.0
600,000000
-1,000000
401
8
100,777187
99,943207
#DATA
600,000000	99,952361
599,000000	99,960207
598,000000	100,000819
597,000000	100,000234
596,000000	99,992980
595,000000	99,997894
594,000000	100,007253
593,000000	100,009124
592,000000	100,017896
591,000000	100,027015
590,000000	100,011342
589,000000	100,013794
588,000000	99,993573
587,000000	100,010401
586,000000	100,027812
585,000000	100,012735
584,000000	99,999883
583,000000	99,995094
582,000000	100,002102
581,000000	99,995212
580,000000	99,994396
579,000000	99,997548
578,000000	99,997899
577,000000	100,007236
576,000000	99,978528
575,000000	99,982732
574,000000	99,977369
573,000000	99,993934
572,000000	99,986121
571,000000	99,971548
570,000000	99,986476
569,000000	99,993472
568,000000	99,987997
567,000000	99,983106
566,000000	100,001282
565,000000	100,009087
564,000000	99,995923
563,000000	100,015369
562,000000	100,010563
561,000000	100,016011
560,000000	100,014501
559,000000	100,006496
558,000000	100,016006
557,000000	100,021920
556,000000	100,006842
555,000000	100,002087
554,000000	99,996986
553,000000	100,007073
552,000000	99,996638
551,000000	100,003015
550,000000	100,013684
549,000000	99,996637
548,000000	99,989563
547,000000	100,007191
546,000000	100,015080
545,000000	100,011139
544,000000	100,007544
543,000000	100,019505
542,000000	100,013939
541,000000	100,008483
540,000000	100,000233
539,000000	100,000931
538,000000	99,989872
537,000000	99,986717
536,000000	99,999533
535,000000	100,000817
534,000000	99,996259
533,000000	99,993327
532,000000	100,000352
531,000000	100,004111
530,000000	100,010003
529,000000	100,012736
528,000000	100,013947
527,000000	100,013508
526,000000	100,009386
525,000000	99,994520
524,000000	99,997132
523,000000	99,994844
522,000000	100,001564
521,000000	99,998430
520,000000	100,000000
519,000000	99,999757
518,000000	100,019301
517,000000	100,019375
516,000000	100,005784
515,000000	99,987281
514,000000	99,989841
513,000000	99,993787
512,000000	99,984057
511,000000	99,989766
510,000000	100,019624
509,000000	100,011635
508,000000	100,007259
507,000000	100,014017
506,000000	100,023517
505,000000	100,002499
504,000000	100,008487
503,000000	100,012461
502,000000	100,002239
501,000000	100,004344
500,000000	100,000991
499,000000	99,997034
498,000000	100,007027
497,000000	100,007871
496,000000	100,001718
495,000000	100,009795
494,000000	100,018450
493,000000	100,014997
492,000000	100,015698
491,000000	100,015423
490,000000	100,016239
489,000000	100,017658
488,000000	100,012433
487,000000	100,007109
486,000000	100,010944
485,000000	100,012725
484,000000	100,025880
483,000000	100,028107
482,000000	100,023562
481,000000	100,021461
480,000000	100,026586
479,000000	100,019309
478,000000	100,007018
477,000000	100,001455
476,000000	100,000972
475,000000	100,007549
474,000000	100,002196
473,000000	99,999267
472,000000	99,997553
471,000000	99,987503
470,000000	99,987980
469,000000	99,998772
468,000000	100,010318
467,000000	100,003072
466,000000	100,011551
465,000000	100,027033
464,000000	100,024689
463,000000	100,005892
462,000000	100,005766
461,000000	100,012382
460,000000	100,007718
459,000000	100,005630
458,000000	100,013086
457,000000	100,019556
456,000000	100,017835
455,000000	100,014161
454,000000	100,021961
453,000000	100,012924
452,000000	99,998294
451,000000	99,994156
450,000000	100,001947
449,000000	100,014839
448,000000	100,019087
447,000000	100,027827
446,000000	100,028167
445,000000	100,020606
444,000000	100,016345
443,000000	100,024218
442,000000	100,020230
441,000000	100,001333
440,000000	100,003514
439,000000	100,013696
438,000000	100,032730
437,000000	100,048138
436,000000	100,042814
435,000000	100,037603
434,000000	100,034091
433,000000	100,042833
432,000000	100,041989
431,000000	100,019537
430,000000	100,004126
429,000000	100,019182
428,000000	100,018093
427,000000	100,009473
426,000000	100,005588
425,000000	100,007655
424,000000	100,004740
423,000000	100,009725
422,000000	100,017024
421,000000	100,017636
420,000000	100,009732
419,000000	100,002799
418,000000	99,994889
417,000000	100,011810
416,000000	100,024117
415,000000	100,046177
414,000000	100,023274
413,000000	100,011579
412,000000	100,025120
411,000000	100,029524
410,000000	100,020868
409,000000	100,008179
408,000000	100,019054
407,000000	100,032868
406,000000	100,048043
405,000000	100,026904
404,000000	100,019330
403,000000	100,016277
402,000000	100,035508
401,000000	100,050228
400,000000	100,044857
399,000000	100,047818
398,000000	100,057905
397,000000	100,054616
396,000000	100,060169
395,000000	100,062163
394,000000	100,069204
393,000000	100,049928
392,000000	100,047243
391,000000	100,041603
390,000000	100,068846
389,000000	100,062716
388,000000	100,080629
387,000000	100,084618
386,000000	100,073426
385,000000	100,046782
384,000000	100,022349
383,000000	100,033972
382,000000	100,040416
381,000000	100,039818
380,000000	100,056545
379,000000	100,565388
378,000000	100,695104
377,000000	100,671367
376,000000	100,690049
375,000000	100,716915
374,000000	100,723681
373,000000	100,700802
372,000000	100,777187
371,000000	100,658741
370,000000	100,639423
369,000000	100,655597
368,000000	100,640171
367,000000	100,677657
366,000000	100,692120
365,000000	100,717082
364,000000	100,737143
363,000000	100,648368
362,000000	100,682054
361,000000	100,672534
360,000000	100,698620
359,000000	100,685719
358,000000	100,652326
357,000000	100,680710
356,000000	100,644938
355,000000	100,633552
354,000000	100,703010
353,000000	100,686939
352,000000	100,722077
351,000000	100,701649
350,000000	100,695576
349,000000	100,703607
348,000000	100,691703
347,000000	100,676171
346,000000	100,668626
345,000000	100,699048
344,000000	100,658791
343,000000	100,719648
342,000000	100,767661
341,000000	100,691152
340,000000	100,769303
339,000000	100,641307
338,000000	100,616215
337,000000	100,708865
336,000000	100,694934
335,000000	100,627696
334,000000	100,668940
333,000000	100,565601
332,000000	100,635509
331,000000	100,687954
330,000000	100,750214
329,000000	100,590673
328,000000	100,687094
327,000000	100,693049
326,000000	100,681924
325,000000	100,652231
324,000000	100,691351
323,000000	100,758431
322,000000	100,559409
321,000000	100,642900
320,000000	100,646646
319,000000	100,017979
318,000000	100,015278
317,000000	100,014892
316,000000	99,972543
315,000000	99,994428
314,000000	100,001814
313,000000	100,004537
312,000000	99,988718
311,000000	99,981453
310,000000	99,966137
309,000000	99,969235
308,000000	100,024156
307,000000	99,981552
306,000000	100,011048
305,000000	100,048918
304,000000	100,020042
303,000000	99,990625
302,000000	100,034269
301,000000	100,008605
300,000000	100,035097
299,000000	100,000392
298,000000	99,998563
297,000000	99,996863
296,000000	100,018314
295,000000	100,028541
294,000000	100,000655
293,000000	99,984403
292,000000	99,943207
291,000000	99,956289
290,000000	99,961122
289,000000	100,004600
288,000000	100,004603
287,000000	100,028162
286,000000	100,004212
285,000000	99,983018
284,000000	99,992626
283,000000	99,997629
282,000000	100,001318
281,000000	99,959548
280,000000	99,979834
279,000000	99,970342
278,000000	99,985364
277,000000	99,991163
276,000000	100,004880
275,000000	100,009892
274,000000	99,982326
273,000000	100,011345
272,000000	100,018998
271,000000	99,992216
270,000000	99,972556
269,000000	99,960015
268,000000	99,984029
267,000000	99,994060
266,000000	100,003566
265,000000	100,033692
264,000000	100,031057
263,000000	100,018638
262,000000	99,992729
261,000000	99,983868
260,000000	99,986376
259,000000	99,998941
258,000000	100,016548
257,000000	100,005561
256,000000	100,011526
255,000000	100,006626
254,000000	100,007159
253,000000	100,005041
252,000000	100,013007
251,000000	100,002921
250,000000	100,024320
249,000000	100,016223
248,000000	99,986163
247,000000	99,982958
246,000000	99,994003
245,000000	99,989593
244,000000	99,993855
243,000000	100,011237
242,000000	100,000134
241,000000	99,993156
240,000000	99,995430
239,000000	99,994748
238,000000	99,987184
237,000000	100,003379
236,000000	99,997564
235,000000	100,005421
234,000000	99,989147
233,000000	99,983030
232,000000	99,993208
231,000000	100,002037
230,000000	100,013714
229,000000	100,024692
228,000000	100,022496
227,000000	100,003924
226,000000	100,007429
225,000000	100,011055
224,000000	100,016948
223,000000	100,015566
222,000000	100,021684
221,000000	100,007475
220,000000	100,002928
219,000000	100,008760
218,000000	100,027805
217,000000	100,035395
216,000000	100,037150
215,000000	100,021421
214,000000	100,005507
213,000000	100,019103
212,000000	100,016586
211,000000	100,014473
210,000000	100,022136
209,000000	100,039400
208,000000	100,021428
207,000000	100,004022
206,000000	100,020613
205,000000	100,033027
204,000000	100,028852
203,000000	100,029864
202,000000	100,011631
201,000000	100,014340
200,000000	100,019888
