PE UV       SUBTECH     SPECTRUM    ASCII       PEDS        4.00        
   -1
Quartzo normal - B.Sample.asc
22/01/20
10:09:39.00
22/01/20
10:09:39.00
Administrator

200,000000
1
Lambda 1050
1050L1808311
PerkinElmer UV WinLab 6.4.0.973 / 2.02.11 Lambda 900 UV/VIS/NIR, May 23 2018 11:23:04

0
0
3350/servo 1800,8/servo 860,8/2
0
0
UV/VIS
1
1
1
CommonBeamDepol,RBeamAtt,SBeamAtt,uv/vis/nir detector, TDS WB InGaAs Detector
0
0
0
0
Program
 
0
3350/0,2 1800,8/0,2 860,8/0,2
0
0
0
 
 
 
0
 
860,8
319,2
1800,8 860,8
Front
100
on
S:100 R:100
 
0
0
0
 
0
 
 
 
0
 
 
0
0
0
0
0
 
 
 
 
0
0


0
0
#HDR
-1
-1
#GR
nm
%T
1.0
0.0
600,000000
-1,000000
401
8
90,840251
83,358495
#DATA
600,000000	90,795585
599,000000	90,811397
598,000000	90,819501
597,000000	90,821994
596,000000	90,825127
595,000000	90,821375
594,000000	90,816005
593,000000	90,824998
592,000000	90,840251
591,000000	90,833903
590,000000	90,800746
589,000000	90,789021
588,000000	90,763582
587,000000	90,781379
586,000000	90,783809
585,000000	90,781952
584,000000	90,753569
583,000000	90,743297
582,000000	90,750292
581,000000	90,761694
580,000000	90,762477
579,000000	90,752563
578,000000	90,755198
577,000000	90,756021
576,000000	90,759753
575,000000	90,750699
574,000000	90,741117
573,000000	90,753008
572,000000	90,738678
571,000000	90,735800
570,000000	90,722938
569,000000	90,721603
568,000000	90,709171
567,000000	90,692166
566,000000	90,692550
565,000000	90,700032
564,000000	90,681077
563,000000	90,685311
562,000000	90,695391
561,000000	90,670611
560,000000	90,670583
559,000000	90,664198
558,000000	90,673398
557,000000	90,675091
556,000000	90,664463
555,000000	90,661112
554,000000	90,646841
553,000000	90,648687
552,000000	90,643019
551,000000	90,640367
550,000000	90,657789
549,000000	90,635734
548,000000	90,627613
547,000000	90,644282
546,000000	90,636303
545,000000	90,629986
544,000000	90,616615
543,000000	90,608387
542,000000	90,613319
541,000000	90,616153
540,000000	90,604062
539,000000	90,590762
538,000000	90,582248
537,000000	90,597367
536,000000	90,601498
535,000000	90,596179
534,000000	90,605409
533,000000	90,592709
532,000000	90,600760
531,000000	90,621410
530,000000	90,617133
529,000000	90,611870
528,000000	90,622355
527,000000	90,612136
526,000000	90,601895
525,000000	90,594586
524,000000	90,605242
523,000000	90,607849
522,000000	90,603288
521,000000	90,601680
520,000000	90,615828
519,000000	90,610047
518,000000	90,604985
517,000000	90,600333
516,000000	90,589359
515,000000	90,577098
514,000000	90,582258
513,000000	90,594774
512,000000	90,595625
511,000000	90,589046
510,000000	90,593248
509,000000	90,580689
508,000000	90,588399
507,000000	90,597959
506,000000	90,596081
505,000000	90,589129
504,000000	90,589137
503,000000	90,583483
502,000000	90,584980
501,000000	90,573473
500,000000	90,566599
499,000000	90,553348
498,000000	90,548627
497,000000	90,539442
496,000000	90,536773
495,000000	90,557268
494,000000	90,571024
493,000000	90,564747
492,000000	90,564463
491,000000	90,566450
490,000000	90,561110
489,000000	90,554988
488,000000	90,553750
487,000000	90,551252
486,000000	90,545068
485,000000	90,541952
484,000000	90,550778
483,000000	90,551080
482,000000	90,546854
481,000000	90,551748
480,000000	90,549700
479,000000	90,537779
478,000000	90,526023
477,000000	90,526893
476,000000	90,533060
475,000000	90,536006
474,000000	90,528351
473,000000	90,530769
472,000000	90,523287
471,000000	90,508158
470,000000	90,501019
469,000000	90,498117
468,000000	90,499417
467,000000	90,501243
466,000000	90,509731
465,000000	90,514949
464,000000	90,500879
463,000000	90,464483
462,000000	90,449051
461,000000	90,445471
460,000000	90,435741
459,000000	90,421740
458,000000	90,407916
457,000000	90,411096
456,000000	90,422366
455,000000	90,424145
454,000000	90,428614
453,000000	90,422248
452,000000	90,396745
451,000000	90,368531
450,000000	90,364361
449,000000	90,366247
448,000000	90,366413
447,000000	90,373378
446,000000	90,366163
445,000000	90,354393
444,000000	90,339824
443,000000	90,331994
442,000000	90,327035
441,000000	90,313178
440,000000	90,308885
439,000000	90,314574
438,000000	90,306114
437,000000	90,315712
436,000000	90,317162
435,000000	90,301318
434,000000	90,304160
433,000000	90,304309
432,000000	90,304855
431,000000	90,288642
430,000000	90,280183
429,000000	90,293236
428,000000	90,294648
427,000000	90,286330
426,000000	90,281368
425,000000	90,274495
424,000000	90,263875
423,000000	90,254763
422,000000	90,262584
421,000000	90,275950
420,000000	90,276262
419,000000	90,275775
418,000000	90,266402
417,000000	90,271502
416,000000	90,280146
415,000000	90,279111
414,000000	90,257716
413,000000	90,249117
412,000000	90,255737
411,000000	90,261789
410,000000	90,252076
409,000000	90,239013
408,000000	90,244352
407,000000	90,228203
406,000000	90,235608
405,000000	90,223459
404,000000	90,208984
403,000000	90,206316
402,000000	90,209009
401,000000	90,217339
400,000000	90,203942
399,000000	90,195809
398,000000	90,208140
397,000000	90,197219
396,000000	90,199639
395,000000	90,188871
394,000000	90,189764
393,000000	90,173371
392,000000	90,153626
391,000000	90,145032
390,000000	90,142446
389,000000	90,138764
388,000000	90,141680
387,000000	90,133896
386,000000	90,126207
385,000000	90,095231
384,000000	90,070283
383,000000	90,069957
382,000000	90,063356
381,000000	90,074035
380,000000	90,085770
379,000000	90,482350
378,000000	90,606947
377,000000	90,545704
376,000000	90,529355
375,000000	90,563719
374,000000	90,566837
373,000000	90,549416
372,000000	90,535363
371,000000	90,495957
370,000000	90,475681
369,000000	90,452805
368,000000	90,480847
367,000000	90,511216
366,000000	90,503251
365,000000	90,553688
364,000000	90,502157
363,000000	90,501519
362,000000	90,449034
361,000000	90,449769
360,000000	90,504646
359,000000	90,468474
358,000000	90,410998
357,000000	90,390444
356,000000	90,403376
355,000000	90,379316
354,000000	90,433805
353,000000	90,437041
352,000000	90,447314
351,000000	90,436653
350,000000	90,396611
349,000000	90,413289
348,000000	90,398782
347,000000	90,386392
346,000000	90,336154
345,000000	90,385815
344,000000	90,401668
343,000000	90,362281
342,000000	90,407671
341,000000	90,333990
340,000000	90,332477
339,000000	90,316529
338,000000	90,322278
337,000000	90,333879
336,000000	90,277686
335,000000	90,251178
334,000000	90,301180
333,000000	90,173102
332,000000	90,243401
331,000000	90,229892
330,000000	90,293966
329,000000	90,247492
328,000000	90,171635
327,000000	90,165092
326,000000	90,222490
325,000000	90,078190
324,000000	90,155324
323,000000	90,197069
322,000000	90,002365
321,000000	90,126805
320,000000	90,117660
319,000000	89,624851
318,000000	89,597726
317,000000	89,583153
316,000000	89,546322
315,000000	89,563168
314,000000	89,545254
313,000000	89,532562
312,000000	89,518566
311,000000	89,486142
310,000000	89,499654
309,000000	89,489760
308,000000	89,457594
307,000000	89,442724
306,000000	89,410078
305,000000	89,442994
304,000000	89,420155
303,000000	89,435408
302,000000	89,431988
301,000000	89,400806
300,000000	89,398937
299,000000	89,351615
298,000000	89,340980
297,000000	89,313132
296,000000	89,332910
295,000000	89,330395
294,000000	89,314770
293,000000	89,272547
292,000000	89,269881
291,000000	89,279400
290,000000	89,256420
289,000000	89,259076
288,000000	89,238897
287,000000	89,238043
286,000000	89,194916
285,000000	89,177750
284,000000	89,166149
283,000000	89,140499
282,000000	89,141343
281,000000	89,111790
280,000000	89,105561
279,000000	89,097596
278,000000	89,083892
277,000000	89,094178
276,000000	89,078671
275,000000	89,033341
274,000000	89,007695
273,000000	89,013737
272,000000	89,007188
271,000000	88,964760
270,000000	88,944334
269,000000	88,921352
268,000000	88,893215
267,000000	88,873752
266,000000	88,864971
265,000000	88,866002
264,000000	88,831723
263,000000	88,816819
262,000000	88,789442
261,000000	88,752575
260,000000	88,733030
259,000000	88,728084
258,000000	88,715220
257,000000	88,670848
256,000000	88,672904
255,000000	88,638598
254,000000	88,598988
253,000000	88,553396
252,000000	88,539674
251,000000	88,499184
250,000000	88,478912
249,000000	88,441653
248,000000	88,394633
247,000000	88,356800
246,000000	88,327560
245,000000	88,303352
244,000000	88,268627
243,000000	88,237466
242,000000	88,211455
241,000000	88,184756
240,000000	88,142825
239,000000	88,089954
238,000000	88,031157
237,000000	87,998816
236,000000	87,936023
235,000000	87,883716
234,000000	87,810523
233,000000	87,728351
232,000000	87,662249
231,000000	87,581342
230,000000	87,500713
229,000000	87,409458
228,000000	87,338494
227,000000	87,240779
226,000000	87,178299
225,000000	87,117171
224,000000	87,053041
223,000000	86,995494
222,000000	86,933156
221,000000	86,851905
220,000000	86,787968
219,000000	86,727414
218,000000	86,681593
217,000000	86,629775
216,000000	86,548841
215,000000	86,475295
214,000000	86,395270
213,000000	86,298773
212,000000	86,207644
211,000000	86,119170
210,000000	86,022683
209,000000	85,887007
208,000000	85,742913
207,000000	85,601939
206,000000	85,443932
205,000000	85,257575
204,000000	85,021121
203,000000	84,702919
202,000000	84,302891
201,000000	83,829369
200,000000	83,358495
