PE UV       SUBTECH     SPECTRUM    ASCII       PEDS        4.00        
   -1
Quartzo com WS - A.Sample.asc
22/01/20
10:28:33.00
22/01/20
10:28:33.00
Administrator

200,000000
1
Lambda 1050
1050L1808311
PerkinElmer UV WinLab 6.4.0.973 / 2.02.11 Lambda 900 UV/VIS/NIR, May 23 2018 11:23:04

0
0
3350/servo 1800,8/servo 860,8/2
0
0
UV/VIS
1
1
1
CommonBeamDepol,RBeamAtt,SBeamAtt,uv/vis/nir detector, TDS WB InGaAs Detector
0
0
0
0
Program
 
0
3350/0,2 1800,8/0,2 860,8/0,2
0
0
0
 
 
 
0
 
860,8
319,2
1800,8 860,8
Front
100
on
S:100 R:100
 
0
0
0
 
0
 
 
 
0
 
 
0
0
0
0
0
 
 
 
 
0
0


0
0
#HDR
-1
-1
#GR
nm
%T
1.0
0.0
600,000000
-1,000000
401
8
48,270361
0,516701
#DATA
600,000000	48,270361
599,000000	48,110315
598,000000	47,962659
597,000000	47,783923
596,000000	47,621544
595,000000	47,451636
594,000000	47,286435
593,000000	47,125450
592,000000	46,957297
591,000000	46,793088
590,000000	46,611986
589,000000	46,453296
588,000000	46,274290
587,000000	46,109815
586,000000	45,943179
585,000000	45,773265
584,000000	45,608135
583,000000	45,442430
582,000000	45,275637
581,000000	45,105131
580,000000	44,943344
579,000000	44,784248
578,000000	44,622004
577,000000	44,453029
576,000000	44,297007
575,000000	44,133518
574,000000	43,973076
573,000000	43,824022
572,000000	43,656802
571,000000	43,501872
570,000000	43,342932
569,000000	43,191482
568,000000	43,028732
567,000000	42,870309
566,000000	42,733219
565,000000	42,576837
564,000000	42,430945
563,000000	42,287747
562,000000	42,137360
561,000000	41,991298
560,000000	41,848274
559,000000	41,708366
558,000000	41,565151
557,000000	41,425173
556,000000	41,280339
555,000000	41,144284
554,000000	41,001391
553,000000	40,862442
552,000000	40,726673
551,000000	40,605756
550,000000	40,477234
549,000000	40,347681
548,000000	40,216808
547,000000	40,082811
546,000000	39,953274
545,000000	39,826535
544,000000	39,699759
543,000000	39,570144
542,000000	39,442481
541,000000	39,325392
540,000000	39,194096
539,000000	39,069593
538,000000	38,943396
537,000000	38,828126
536,000000	38,707194
535,000000	38,586496
534,000000	38,468320
533,000000	38,341737
532,000000	38,215894
531,000000	38,097923
530,000000	37,977261
529,000000	37,847683
528,000000	37,722506
527,000000	37,593284
526,000000	37,466006
525,000000	37,333221
524,000000	37,205297
523,000000	37,074325
522,000000	36,946812
521,000000	36,813718
520,000000	36,684783
519,000000	36,550004
518,000000	36,412966
517,000000	36,273463
516,000000	36,132953
515,000000	35,985987
514,000000	35,849414
513,000000	35,704221
512,000000	35,557518
511,000000	35,406644
510,000000	35,254789
509,000000	35,099196
508,000000	34,946720
507,000000	34,789704
506,000000	34,636025
505,000000	34,475075
504,000000	34,305056
503,000000	34,136838
502,000000	33,958423
501,000000	33,780478
500,000000	33,602948
499,000000	33,417234
498,000000	33,231133
497,000000	33,038775
496,000000	32,847127
495,000000	32,664001
494,000000	32,472777
493,000000	32,274608
492,000000	32,087179
491,000000	31,891543
490,000000	31,688541
489,000000	31,487444
488,000000	31,283739
487,000000	31,078347
486,000000	30,875462
485,000000	30,672152
484,000000	30,467555
483,000000	30,261038
482,000000	30,064514
481,000000	29,870429
480,000000	29,678534
479,000000	29,480058
478,000000	29,274216
477,000000	29,066585
476,000000	28,860711
475,000000	28,658012
474,000000	28,457396
473,000000	28,256789
472,000000	28,058241
471,000000	27,862905
470,000000	27,668925
469,000000	27,475826
468,000000	27,285356
467,000000	27,098340
466,000000	26,915638
465,000000	26,739434
464,000000	26,569041
463,000000	26,388042
462,000000	26,214631
461,000000	26,052133
460,000000	25,887102
459,000000	25,723871
458,000000	25,568983
457,000000	25,423209
456,000000	25,284562
455,000000	25,148873
454,000000	25,019246
453,000000	24,894718
452,000000	24,779440
451,000000	24,669330
450,000000	24,564553
449,000000	24,469106
448,000000	24,377500
447,000000	24,297190
446,000000	24,222940
445,000000	24,150078
444,000000	24,087117
443,000000	24,041597
442,000000	24,002340
441,000000	23,966877
440,000000	23,944858
439,000000	23,935352
438,000000	23,928080
437,000000	23,929832
436,000000	23,947119
435,000000	23,972751
434,000000	24,005576
433,000000	24,043323
432,000000	24,095938
431,000000	24,154861
430,000000	24,221083
429,000000	24,300234
428,000000	24,385781
427,000000	24,475155
426,000000	24,560856
425,000000	24,641647
424,000000	24,714499
423,000000	24,767112
422,000000	24,804466
421,000000	24,820659
420,000000	24,804595
419,000000	24,751632
418,000000	24,667940
417,000000	24,555015
416,000000	24,408648
415,000000	24,229849
414,000000	24,026588
413,000000	23,818862
412,000000	23,606752
411,000000	23,394716
410,000000	23,179724
409,000000	22,970388
408,000000	22,771321
407,000000	22,590621
406,000000	22,420915
405,000000	22,258977
404,000000	22,107901
403,000000	21,976189
402,000000	21,868227
401,000000	21,773997
400,000000	21,702618
399,000000	21,634400
398,000000	21,588810
397,000000	21,563025
396,000000	21,558558
395,000000	21,566867
394,000000	21,590264
393,000000	21,636857
392,000000	21,699718
391,000000	21,783805
390,000000	21,876555
389,000000	21,979147
388,000000	22,089279
387,000000	22,197593
386,000000	22,305041
385,000000	22,398613
384,000000	22,482936
383,000000	22,578700
382,000000	22,656339
381,000000	22,717970
380,000000	22,766923
379,000000	22,804636
378,000000	22,781332
377,000000	22,780364
376,000000	22,796827
375,000000	22,789491
374,000000	22,807646
373,000000	22,789704
372,000000	22,732051
371,000000	22,688332
370,000000	22,623177
369,000000	22,560750
368,000000	22,479984
367,000000	22,410426
366,000000	22,309340
365,000000	22,207995
364,000000	22,083309
363,000000	21,933065
362,000000	21,783770
361,000000	21,648722
360,000000	21,458558
359,000000	21,274750
358,000000	21,054090
357,000000	20,861665
356,000000	20,657368
355,000000	20,434647
354,000000	20,211558
353,000000	20,010169
352,000000	19,804664
351,000000	19,606150
350,000000	19,389942
349,000000	19,179878
348,000000	19,000155
347,000000	18,827084
346,000000	18,618381
345,000000	18,461073
344,000000	18,313042
343,000000	18,170206
342,000000	18,017244
341,000000	17,890040
340,000000	17,767072
339,000000	17,642500
338,000000	17,550196
337,000000	17,458627
336,000000	17,378233
335,000000	17,299956
334,000000	17,246122
333,000000	17,193876
332,000000	17,128629
331,000000	17,095901
330,000000	17,049460
329,000000	17,016148
328,000000	16,970198
327,000000	16,920998
326,000000	16,859780
325,000000	16,763193
324,000000	16,733408
323,000000	16,677916
322,000000	16,602958
321,000000	16,555300
320,000000	16,519114
319,000000	16,451798
318,000000	16,398312
317,000000	16,366982
316,000000	16,329647
315,000000	16,308773
314,000000	16,286340
313,000000	16,258555
312,000000	16,244615
311,000000	16,212479
310,000000	16,181466
309,000000	16,175241
308,000000	16,168287
307,000000	16,161867
306,000000	16,163811
305,000000	16,191078
304,000000	16,204166
303,000000	16,223790
302,000000	16,244879
301,000000	16,259468
300,000000	16,275726
299,000000	16,281811
298,000000	16,275149
297,000000	16,269666
296,000000	16,260102
295,000000	16,248115
294,000000	16,213257
293,000000	16,180173
292,000000	16,137084
291,000000	16,080769
290,000000	16,007077
289,000000	15,918444
288,000000	15,807421
287,000000	15,672083
286,000000	15,500834
285,000000	15,296645
284,000000	15,040373
283,000000	14,729540
282,000000	14,383863
281,000000	13,995475
280,000000	13,641642
279,000000	13,366682
278,000000	13,237332
277,000000	13,282061
276,000000	13,505478
275,000000	13,861847
274,000000	14,294758
273,000000	14,724420
272,000000	15,076098
271,000000	15,275037
270,000000	15,263026
269,000000	14,973786
268,000000	14,369527
267,000000	13,408761
266,000000	12,078895
265,000000	10,402028
264,000000	8,496967
263,000000	6,556733
262,000000	4,808680
261,000000	3,400673
260,000000	2,420426
259,000000	1,814320
258,000000	1,488090
257,000000	1,356442
256,000000	1,337112
255,000000	1,369088
254,000000	1,417172
253,000000	1,461765
252,000000	1,485794
251,000000	1,494801
250,000000	1,493593
249,000000	1,497203
248,000000	1,506715
247,000000	1,523304
246,000000	1,542936
245,000000	1,558575
244,000000	1,564771
243,000000	1,560445
242,000000	1,544154
241,000000	1,524513
240,000000	1,496833
239,000000	1,474094
238,000000	1,450863
237,000000	1,438201
236,000000	1,434441
235,000000	1,441692
234,000000	1,460095
233,000000	1,489579
232,000000	1,536650
231,000000	1,595677
230,000000	1,670609
229,000000	1,755700
228,000000	1,849985
227,000000	1,947533
226,000000	2,033437
225,000000	2,103682
224,000000	2,159687
223,000000	2,207495
222,000000	2,257270
221,000000	2,318352
220,000000	2,395545
219,000000	2,474266
218,000000	2,540622
217,000000	2,581041
216,000000	2,575199
215,000000	2,526921
214,000000	2,441464
213,000000	2,318714
212,000000	2,165299
211,000000	1,996164
210,000000	1,817365
209,000000	1,633083
208,000000	1,449735
207,000000	1,272867
206,000000	1,108419
205,000000	0,960362
204,000000	0,832174
203,000000	0,725151
202,000000	0,638647
201,000000	0,568812
200,000000	0,516701
