PE UV       SUBTECH     SPECTRUM    ASCII       PEDS        4.00        
   -1
Quartzo com WS - A2.Sample.asc
22/01/20
10:36:11.00
22/01/20
10:36:11.00
Administrator

200,000000
1
Lambda 1050
1050L1808311
PerkinElmer UV WinLab 6.4.0.973 / 2.02.11 Lambda 900 UV/VIS/NIR, May 23 2018 11:23:04

0
0
3350/servo 1800,8/servo 860,8/2
0
0
UV/VIS
1
1
1
CommonBeamDepol,RBeamAtt,SBeamAtt,uv/vis/nir detector, TDS WB InGaAs Detector
0
0
0
0
Program
 
0
3350/0,2 1800,8/0,2 860,8/0,2
0
0
0
 
 
 
0
 
860,8
319,2
1800,8 860,8
Front
100
on
S:100 R:100
 
0
0
0
 
0
 
 
 
0
 
 
0
0
0
0
0
 
 
 
 
0
0


0
0
#HDR
-1
-1
#GR
nm
%T
1.0
0.0
600,000000
-1,000000
401
8
48,121825
0,528712
#DATA
600,000000	48,121825
599,000000	47,962145
598,000000	47,801844
597,000000	47,629824
596,000000	47,459263
595,000000	47,291468
594,000000	47,124182
593,000000	46,957945
592,000000	46,787228
591,000000	46,613338
590,000000	46,442214
589,000000	46,262628
588,000000	46,084631
587,000000	45,932181
586,000000	45,760064
585,000000	45,592285
584,000000	45,420064
583,000000	45,247022
582,000000	45,084910
581,000000	44,919685
580,000000	44,754783
579,000000	44,593014
578,000000	44,415742
577,000000	44,252289
576,000000	44,094308
575,000000	43,923153
574,000000	43,763911
573,000000	43,609130
572,000000	43,447677
571,000000	43,294192
570,000000	43,131332
569,000000	42,967679
568,000000	42,814192
567,000000	42,657790
566,000000	42,513120
565,000000	42,365500
564,000000	42,212197
563,000000	42,068275
562,000000	41,932144
561,000000	41,781645
560,000000	41,639695
559,000000	41,498419
558,000000	41,356841
557,000000	41,221170
556,000000	41,085406
555,000000	40,947049
554,000000	40,804290
553,000000	40,673210
552,000000	40,538030
551,000000	40,413276
550,000000	40,287171
549,000000	40,164459
548,000000	40,036714
547,000000	39,919740
546,000000	39,792145
545,000000	39,665253
544,000000	39,538322
543,000000	39,425248
542,000000	39,311924
541,000000	39,198373
540,000000	39,072253
539,000000	38,957099
538,000000	38,833852
537,000000	38,721397
536,000000	38,608752
535,000000	38,499265
534,000000	38,384141
533,000000	38,263772
532,000000	38,145664
531,000000	38,041775
530,000000	37,923361
529,000000	37,806174
528,000000	37,688702
527,000000	37,565675
526,000000	37,439987
525,000000	37,313801
524,000000	37,194421
523,000000	37,065332
522,000000	36,931891
521,000000	36,801158
520,000000	36,675084
519,000000	36,533940
518,000000	36,392932
517,000000	36,258625
516,000000	36,114492
515,000000	35,963759
514,000000	35,808407
513,000000	35,660606
512,000000	35,505330
511,000000	35,352480
510,000000	35,190294
509,000000	35,025259
508,000000	34,860485
507,000000	34,691083
506,000000	34,517564
505,000000	34,348104
504,000000	34,177376
503,000000	34,004755
502,000000	33,827957
501,000000	33,652515
500,000000	33,471670
499,000000	33,282054
498,000000	33,091702
497,000000	32,898936
496,000000	32,705413
495,000000	32,517441
494,000000	32,327253
493,000000	32,128778
492,000000	31,935066
491,000000	31,741685
490,000000	31,539720
489,000000	31,333845
488,000000	31,130436
487,000000	30,930393
486,000000	30,729219
485,000000	30,530980
484,000000	30,339113
483,000000	30,147772
482,000000	29,950651
481,000000	29,752332
480,000000	29,557873
479,000000	29,358408
478,000000	29,157335
477,000000	28,953454
476,000000	28,748199
475,000000	28,546730
474,000000	28,345785
473,000000	28,148529
472,000000	27,947369
471,000000	27,744424
470,000000	27,549462
469,000000	27,358469
468,000000	27,164614
467,000000	26,967860
466,000000	26,778995
465,000000	26,597512
464,000000	26,414765
463,000000	26,228717
462,000000	26,052091
461,000000	25,886259
460,000000	25,723561
459,000000	25,558999
458,000000	25,401917
457,000000	25,256370
456,000000	25,112200
455,000000	24,975157
454,000000	24,848806
453,000000	24,722805
452,000000	24,603017
451,000000	24,492413
450,000000	24,387124
449,000000	24,293591
448,000000	24,208031
447,000000	24,129986
446,000000	24,056971
445,000000	23,992742
444,000000	23,932381
443,000000	23,880425
442,000000	23,842196
441,000000	23,809743
440,000000	23,784551
439,000000	23,772460
438,000000	23,769035
437,000000	23,774868
436,000000	23,784597
435,000000	23,798324
434,000000	23,825781
433,000000	23,863740
432,000000	23,908809
431,000000	23,959246
430,000000	24,014893
429,000000	24,085230
428,000000	24,156887
427,000000	24,226912
426,000000	24,295304
425,000000	24,360845
424,000000	24,421616
423,000000	24,471588
422,000000	24,496573
421,000000	24,500412
420,000000	24,470413
419,000000	24,414472
418,000000	24,315740
417,000000	24,190357
416,000000	24,030816
415,000000	23,840082
414,000000	23,623990
413,000000	23,400072
412,000000	23,167029
411,000000	22,927332
410,000000	22,683041
409,000000	22,438623
408,000000	22,211433
407,000000	21,990330
406,000000	21,778382
405,000000	21,578437
404,000000	21,389632
403,000000	21,212021
402,000000	21,057536
401,000000	20,920859
400,000000	20,790886
399,000000	20,677669
398,000000	20,594485
397,000000	20,535384
396,000000	20,497981
395,000000	20,476564
394,000000	20,485951
393,000000	20,510030
392,000000	20,551982
391,000000	20,617939
390,000000	20,704817
389,000000	20,807006
388,000000	20,915473
387,000000	21,032188
386,000000	21,158111
385,000000	21,272627
384,000000	21,390541
383,000000	21,503336
382,000000	21,611443
381,000000	21,716705
380,000000	21,802324
379,000000	21,916186
378,000000	21,925745
377,000000	21,984116
376,000000	22,060807
375,000000	22,118380
374,000000	22,163150
373,000000	22,185639
372,000000	22,205793
371,000000	22,197163
370,000000	22,176542
369,000000	22,166710
368,000000	22,113197
367,000000	22,046380
366,000000	21,996719
365,000000	21,885933
364,000000	21,756575
363,000000	21,622304
362,000000	21,470901
361,000000	21,270629
360,000000	21,064562
359,000000	20,842131
358,000000	20,609478
357,000000	20,354368
356,000000	20,070512
355,000000	19,809120
354,000000	19,537464
353,000000	19,275108
352,000000	19,001105
351,000000	18,747614
350,000000	18,475363
349,000000	18,226011
348,000000	18,002299
347,000000	17,795172
346,000000	17,583466
345,000000	17,377193
344,000000	17,230511
343,000000	17,078696
342,000000	16,949612
341,000000	16,826595
340,000000	16,767078
339,000000	16,670479
338,000000	16,606300
337,000000	16,584531
336,000000	16,548444
335,000000	16,543515
334,000000	16,549973
333,000000	16,537914
332,000000	16,567273
331,000000	16,578083
330,000000	16,618558
329,000000	16,617632
328,000000	16,605030
327,000000	16,571332
326,000000	16,542027
325,000000	16,529391
324,000000	16,442379
323,000000	16,409449
322,000000	16,315076
321,000000	16,243416
320,000000	16,141600
319,000000	15,973080
318,000000	15,872391
317,000000	15,770117
316,000000	15,672228
315,000000	15,588581
314,000000	15,510263
313,000000	15,426216
312,000000	15,371508
311,000000	15,314827
310,000000	15,274033
309,000000	15,259417
308,000000	15,253346
307,000000	15,273649
306,000000	15,315198
305,000000	15,383404
304,000000	15,457805
303,000000	15,540300
302,000000	15,642232
301,000000	15,725069
300,000000	15,806284
299,000000	15,877288
298,000000	15,928777
297,000000	15,964760
296,000000	15,984873
295,000000	15,987060
294,000000	15,958881
293,000000	15,914634
292,000000	15,852072
291,000000	15,762717
290,000000	15,652972
289,000000	15,529009
288,000000	15,380670
287,000000	15,211890
286,000000	15,021875
285,000000	14,809159
284,000000	14,549733
283,000000	14,261837
282,000000	13,936509
281,000000	13,594780
280,000000	13,275489
279,000000	13,053359
278,000000	12,970056
277,000000	13,064037
276,000000	13,321734
275,000000	13,712544
274,000000	14,164317
273,000000	14,608204
272,000000	14,957755
271,000000	15,147202
270,000000	15,116175
269,000000	14,815035
268,000000	14,197282
267,000000	13,226329
266,000000	11,900476
265,000000	10,235419
264,000000	8,359787
263,000000	6,448210
262,000000	4,730283
261,000000	3,364310
260,000000	2,406273
259,000000	1,814717
258,000000	1,502652
257,000000	1,376172
256,000000	1,357911
255,000000	1,393339
254,000000	1,443819
253,000000	1,483652
252,000000	1,506366
251,000000	1,512860
250,000000	1,513527
249,000000	1,517815
248,000000	1,528268
247,000000	1,546471
246,000000	1,569991
245,000000	1,585925
244,000000	1,592957
243,000000	1,590811
242,000000	1,576307
241,000000	1,551085
240,000000	1,524256
239,000000	1,498738
238,000000	1,477034
237,000000	1,463068
236,000000	1,459614
235,000000	1,467170
234,000000	1,489804
233,000000	1,524877
232,000000	1,569928
231,000000	1,631943
230,000000	1,706726
229,000000	1,793009
228,000000	1,886982
227,000000	1,977570
226,000000	2,060317
225,000000	2,134825
224,000000	2,191431
223,000000	2,242249
222,000000	2,297827
221,000000	2,362132
220,000000	2,437869
219,000000	2,512493
218,000000	2,573857
217,000000	2,604550
216,000000	2,597067
215,000000	2,550839
214,000000	2,466245
213,000000	2,343443
212,000000	2,190896
211,000000	2,019634
210,000000	1,835464
209,000000	1,648948
208,000000	1,462981
207,000000	1,284934
206,000000	1,121901
205,000000	0,974867
204,000000	0,847959
203,000000	0,741182
202,000000	0,652862
201,000000	0,583281
200,000000	0,528712
