PE UV       SUBTECH     SPECTRUM    ASCII       PEDS        4.00        
   -1
Quartzo - Q.Sample.asc
22/01/20
10:24:26.00
22/01/20
10:24:26.00
Administrator

200,000000
1
Lambda 1050
1050L1808311
PerkinElmer UV WinLab 6.4.0.973 / 2.02.11 Lambda 900 UV/VIS/NIR, May 23 2018 11:23:04

0
0
3350/servo 1800,8/servo 860,8/2
0
0
UV/VIS
1
1
1
CommonBeamDepol,RBeamAtt,SBeamAtt,uv/vis/nir detector, TDS WB InGaAs Detector
0
0
0
0
Program
 
0
3350/0,2 1800,8/0,2 860,8/0,2
0
0
0
 
 
 
0
 
860,8
319,2
1800,8 860,8
Front
100
on
S:100 R:100
 
0
0
0
 
0
 
 
 
0
 
 
0
0
0
0
0
 
 
 
 
0
0


0
0
#HDR
-1
-1
#GR
nm
%T
1.0
0.0
600,000000
-1,000000
401
8
89,345525
-0,006468
#DATA
600,000000	89,255215
599,000000	89,263929
598,000000	89,289769
597,000000	89,277603
596,000000	89,309027
595,000000	89,333528
594,000000	89,332912
593,000000	89,345525
592,000000	89,339573
591,000000	89,337894
590,000000	89,317931
589,000000	89,341652
588,000000	89,324715
587,000000	89,329104
586,000000	89,316782
585,000000	89,323248
584,000000	89,322477
583,000000	89,312020
582,000000	89,306120
581,000000	89,299849
580,000000	89,279906
579,000000	89,275224
578,000000	89,258600
577,000000	89,217439
576,000000	89,199777
575,000000	89,189120
574,000000	89,172324
573,000000	89,160452
572,000000	89,124347
571,000000	89,101648
570,000000	89,076304
569,000000	89,043427
568,000000	89,009981
567,000000	88,995394
566,000000	88,984652
565,000000	88,961108
564,000000	88,927366
563,000000	88,903921
562,000000	88,887909
561,000000	88,836640
560,000000	88,803586
559,000000	88,746372
558,000000	88,712901
557,000000	88,680169
556,000000	88,631994
555,000000	88,587774
554,000000	88,546899
553,000000	88,513337
552,000000	88,458038
551,000000	88,421629
550,000000	88,383174
549,000000	88,336182
548,000000	88,277935
547,000000	88,241475
546,000000	88,188627
545,000000	88,128724
544,000000	88,083074
543,000000	88,035448
542,000000	88,003559
541,000000	87,965718
540,000000	87,907716
539,000000	87,860428
538,000000	87,799529
537,000000	87,754952
536,000000	87,727909
535,000000	87,696560
534,000000	87,653889
533,000000	87,589305
532,000000	87,538339
531,000000	87,500617
530,000000	87,465033
529,000000	87,417203
528,000000	87,385171
527,000000	87,354164
526,000000	87,314703
525,000000	87,262154
524,000000	87,227647
523,000000	87,190820
522,000000	87,157269
521,000000	87,129347
520,000000	87,114130
519,000000	87,090929
518,000000	87,067913
517,000000	87,050351
516,000000	87,029600
515,000000	86,997665
514,000000	86,967893
513,000000	86,953140
512,000000	86,928660
511,000000	86,931643
510,000000	86,940115
509,000000	86,921481
508,000000	86,900831
507,000000	86,888656
506,000000	86,882523
505,000000	86,866346
504,000000	86,861960
503,000000	86,863977
502,000000	86,853597
501,000000	86,844192
500,000000	86,846987
499,000000	86,851223
498,000000	86,848827
497,000000	86,849773
496,000000	86,863603
495,000000	86,884592
494,000000	86,906665
493,000000	86,924989
492,000000	86,936617
491,000000	86,944225
490,000000	86,960674
489,000000	86,979154
488,000000	87,000256
487,000000	87,022264
486,000000	87,051469
485,000000	87,073393
484,000000	87,093272
483,000000	87,113990
482,000000	87,139334
481,000000	87,184720
480,000000	87,226046
479,000000	87,248540
478,000000	87,269460
477,000000	87,289849
476,000000	87,314555
475,000000	87,345708
474,000000	87,366174
473,000000	87,380101
472,000000	87,390490
471,000000	87,399346
470,000000	87,420507
469,000000	87,442411
468,000000	87,456656
467,000000	87,469484
466,000000	87,493764
465,000000	87,525128
464,000000	87,547413
463,000000	87,534538
462,000000	87,530576
461,000000	87,544809
460,000000	87,532433
459,000000	87,512791
458,000000	87,500046
457,000000	87,491352
456,000000	87,494656
455,000000	87,489654
454,000000	87,473784
453,000000	87,448152
452,000000	87,419845
451,000000	87,393810
450,000000	87,369378
449,000000	87,339187
448,000000	87,309044
447,000000	87,296387
446,000000	87,265328
445,000000	87,211314
444,000000	87,166178
443,000000	87,148156
442,000000	87,124882
441,000000	87,079391
440,000000	87,032590
439,000000	86,989946
438,000000	86,947978
437,000000	86,922022
436,000000	86,891692
435,000000	86,838240
434,000000	86,783109
433,000000	86,733509
432,000000	86,673560
431,000000	86,600709
430,000000	86,541699
429,000000	86,504254
428,000000	86,434899
427,000000	86,386579
426,000000	86,342797
425,000000	86,272313
424,000000	86,207014
423,000000	86,161314
422,000000	86,113084
421,000000	86,080630
420,000000	86,045530
419,000000	85,977502
418,000000	85,920238
417,000000	85,888187
416,000000	85,841413
415,000000	85,797955
414,000000	85,743112
413,000000	85,702272
412,000000	85,676449
411,000000	85,662244
410,000000	85,627065
409,000000	85,593029
408,000000	85,583387
407,000000	85,561748
406,000000	85,553530
405,000000	85,530118
404,000000	85,507266
403,000000	85,466125
402,000000	85,449180
401,000000	85,429037
400,000000	85,419036
399,000000	85,404431
398,000000	85,391338
397,000000	85,363516
396,000000	85,350849
395,000000	85,326305
394,000000	85,301731
393,000000	85,284345
392,000000	85,257936
391,000000	85,222471
390,000000	85,206711
389,000000	85,159292
388,000000	85,134912
387,000000	85,115178
386,000000	85,074358
385,000000	85,021262
384,000000	84,963920
383,000000	84,947492
382,000000	84,927003
381,000000	84,913631
380,000000	84,937120
379,000000	85,089584
378,000000	85,112759
377,000000	85,185364
376,000000	85,219032
375,000000	85,268311
374,000000	85,326474
373,000000	85,397109
372,000000	85,444315
371,000000	85,385341
370,000000	85,394722
369,000000	85,331744
368,000000	85,361434
367,000000	85,358753
366,000000	85,296764
365,000000	85,277664
364,000000	85,227360
363,000000	85,111328
362,000000	85,037385
361,000000	84,940885
360,000000	84,792510
359,000000	84,697388
358,000000	84,518512
357,000000	84,372639
356,000000	84,105676
355,000000	84,005526
354,000000	83,737975
353,000000	83,555282
352,000000	83,307535
351,000000	83,088917
350,000000	82,754203
349,000000	82,485293
348,000000	82,114621
347,000000	81,698011
346,000000	81,323391
345,000000	80,917219
344,000000	80,465217
343,000000	80,005164
342,000000	79,514177
341,000000	78,839724
340,000000	78,338676
339,000000	77,655374
338,000000	76,967525
337,000000	76,245708
336,000000	75,415239
335,000000	74,566925
334,000000	73,762116
333,000000	72,745741
332,000000	71,826690
331,000000	70,824779
330,000000	69,757707
329,000000	68,516142
328,000000	67,334989
327,000000	65,986312
326,000000	64,551039
325,000000	63,138507
324,000000	61,531109
323,000000	59,973682
322,000000	58,242405
321,000000	56,579592
320,000000	54,711628
319,000000	52,486784
318,000000	50,508183
317,000000	48,437777
316,000000	46,320283
315,000000	44,173670
314,000000	41,942629
313,000000	39,661801
312,000000	37,378786
311,000000	35,060719
310,000000	32,739190
309,000000	30,423940
308,000000	28,128624
307,000000	25,842358
306,000000	23,595317
305,000000	21,440308
304,000000	19,337841
303,000000	17,334509
302,000000	15,441958
301,000000	13,661004
300,000000	11,977945
299,000000	10,433266
298,000000	9,000172
297,000000	7,696751
296,000000	6,532898
295,000000	5,499304
294,000000	4,585447
293,000000	3,787663
292,000000	3,098670
291,000000	2,511213
290,000000	2,019683
289,000000	1,601768
288,000000	1,264736
287,000000	0,981315
286,000000	0,753516
285,000000	0,572793
284,000000	0,432043
283,000000	0,320714
282,000000	0,238238
281,000000	0,171821
280,000000	0,125610
279,000000	0,088448
278,000000	0,059863
277,000000	0,038250
276,000000	0,026381
275,000000	0,015959
274,000000	0,008177
273,000000	0,003166
272,000000	0,001187
271,000000	-0,000132
270,000000	-0,003562
269,000000	-0,002243
268,000000	-0,004092
267,000000	-0,006468
266,000000	-0,003698
265,000000	-0,003699
264,000000	-0,003040
263,000000	-0,003305
262,000000	-0,002644
261,000000	-0,003967
260,000000	-0,002381
259,000000	-0,002382
258,000000	-0,003045
257,000000	-0,003178
256,000000	-0,002782
255,000000	-0,001723
254,000000	-0,002651
253,000000	-0,003051
252,000000	-0,004645
251,000000	-0,004780
250,000000	-0,004917
249,000000	-0,005718
248,000000	-0,004657
247,000000	-0,004660
246,000000	-0,004798
245,000000	-0,004403
244,000000	-0,004275
243,000000	-0,005886
242,000000	-0,005895
241,000000	-0,004026
240,000000	-0,001210
239,000000	0,002424
238,000000	0,000000
237,000000	0,000135
236,000000	0,000947
235,000000	0,001491
234,000000	0,002578
233,000000	0,002172
232,000000	0,002717
231,000000	0,004075
230,000000	0,004345
229,000000	0,002442
228,000000	0,002439
227,000000	0,004736
226,000000	0,004322
225,000000	0,002696
224,000000	0,004842
223,000000	0,005770
222,000000	0,005889
221,000000	0,007341
220,000000	0,007719
219,000000	0,008760
218,000000	0,007680
217,000000	0,008585
216,000000	0,009749
215,000000	0,009594
214,000000	0,009702
213,000000	0,010729
212,000000	0,010187
211,000000	0,010692
210,000000	0,013542
209,000000	0,015474
208,000000	0,014416
207,000000	0,015440
206,000000	0,017501
205,000000	0,016578
204,000000	0,017596
203,000000	0,020427
202,000000	0,022873
201,000000	0,023383
200,000000	0,022600
