PE UV       SUBTECH     SPECTRUM    ASCII       PEDS        4.00        
   -1
Safira - C.Sample.asc
22/01/20
10:17:20.00
22/01/20
10:17:20.00
Administrator

200,000000
1
Lambda 1050
1050L1808311
PerkinElmer UV WinLab 6.4.0.973 / 2.02.11 Lambda 900 UV/VIS/NIR, May 23 2018 11:23:04

0
0
3350/servo 1800,8/servo 860,8/2
0
0
UV/VIS
1
1
1
CommonBeamDepol,RBeamAtt,SBeamAtt,uv/vis/nir detector, TDS WB InGaAs Detector
0
0
0
0
Program
 
0
3350/0,2 1800,8/0,2 860,8/0,2
0
0
0
 
 
 
0
 
860,8
319,2
1800,8 860,8
Front
100
on
S:100 R:100
 
0
0
0
 
0
 
 
 
0
 
 
0
0
0
0
0
 
 
 
 
0
0


0
0
#HDR
-1
-1
#GR
nm
%T
1.0
0.0
600,000000
-1,000000
401
8
85,723632
80,754196
#DATA
600,000000	85,673034
599,000000	85,692768
598,000000	85,723632
597,000000	85,709906
596,000000	85,722944
595,000000	85,717628
594,000000	85,720519
593,000000	85,710008
592,000000	85,722273
591,000000	85,715756
590,000000	85,718812
589,000000	85,709376
588,000000	85,683786
587,000000	85,695203
586,000000	85,694787
585,000000	85,699564
584,000000	85,687802
583,000000	85,692010
582,000000	85,692595
581,000000	85,688444
580,000000	85,681010
579,000000	85,662900
578,000000	85,667394
577,000000	85,666085
576,000000	85,665907
575,000000	85,661449
574,000000	85,668790
573,000000	85,689870
572,000000	85,669881
571,000000	85,652367
570,000000	85,664937
569,000000	85,670058
568,000000	85,664043
567,000000	85,664535
566,000000	85,671857
565,000000	85,662558
564,000000	85,656512
563,000000	85,668662
562,000000	85,676877
561,000000	85,665622
560,000000	85,658785
559,000000	85,659338
558,000000	85,665738
557,000000	85,661980
556,000000	85,653505
555,000000	85,646189
554,000000	85,632116
553,000000	85,639613
552,000000	85,653332
551,000000	85,652931
550,000000	85,652014
549,000000	85,638065
548,000000	85,628604
547,000000	85,640107
546,000000	85,643391
545,000000	85,637441
544,000000	85,627524
543,000000	85,619828
542,000000	85,616699
541,000000	85,612318
540,000000	85,602010
539,000000	85,601825
538,000000	85,600501
537,000000	85,594390
536,000000	85,591700
535,000000	85,598713
534,000000	85,606240
533,000000	85,597807
532,000000	85,594663
531,000000	85,598869
530,000000	85,580763
529,000000	85,582902
528,000000	85,592121
527,000000	85,593947
526,000000	85,592337
525,000000	85,574910
524,000000	85,574586
523,000000	85,558331
522,000000	85,557238
521,000000	85,561169
520,000000	85,573014
519,000000	85,574756
518,000000	85,567575
517,000000	85,558009
516,000000	85,551003
515,000000	85,546183
514,000000	85,544273
513,000000	85,560827
512,000000	85,554840
511,000000	85,547356
510,000000	85,550957
509,000000	85,555080
508,000000	85,547860
507,000000	85,535745
506,000000	85,536925
505,000000	85,533773
504,000000	85,538109
503,000000	85,541901
502,000000	85,537998
501,000000	85,529443
500,000000	85,533346
499,000000	85,530068
498,000000	85,522196
497,000000	85,508332
496,000000	85,497621
495,000000	85,506419
494,000000	85,518387
493,000000	85,517054
492,000000	85,523909
491,000000	85,515955
490,000000	85,508453
489,000000	85,504240
488,000000	85,502231
487,000000	85,499101
486,000000	85,497034
485,000000	85,497812
484,000000	85,498533
483,000000	85,495972
482,000000	85,483057
481,000000	85,478725
480,000000	85,478085
479,000000	85,472073
478,000000	85,468339
477,000000	85,466041
476,000000	85,459805
475,000000	85,462796
474,000000	85,454767
473,000000	85,462208
472,000000	85,465532
471,000000	85,446797
470,000000	85,438951
469,000000	85,442551
468,000000	85,447761
467,000000	85,439793
466,000000	85,438841
465,000000	85,454175
464,000000	85,458920
463,000000	85,441965
462,000000	85,443813
461,000000	85,453906
460,000000	85,448543
459,000000	85,434078
458,000000	85,422733
457,000000	85,427927
456,000000	85,431198
455,000000	85,416417
454,000000	85,409588
453,000000	85,402021
452,000000	85,391951
451,000000	85,396701
450,000000	85,403065
449,000000	85,402682
448,000000	85,389572
447,000000	85,385815
446,000000	85,387829
445,000000	85,374194
444,000000	85,364929
443,000000	85,372118
442,000000	85,365115
441,000000	85,350674
440,000000	85,344339
439,000000	85,342965
438,000000	85,347948
437,000000	85,358921
436,000000	85,364948
435,000000	85,370889
434,000000	85,363309
433,000000	85,343921
432,000000	85,333683
431,000000	85,323991
430,000000	85,308199
429,000000	85,308557
428,000000	85,310221
427,000000	85,297175
426,000000	85,293224
425,000000	85,291026
424,000000	85,286072
423,000000	85,288844
422,000000	85,283402
421,000000	85,287614
420,000000	85,287996
419,000000	85,276536
418,000000	85,270236
417,000000	85,270279
416,000000	85,270889
415,000000	85,267341
414,000000	85,245958
413,000000	85,224125
412,000000	85,236360
411,000000	85,259154
410,000000	85,257665
409,000000	85,237909
408,000000	85,261550
407,000000	85,247734
406,000000	85,246200
405,000000	85,236746
404,000000	85,234688
403,000000	85,218052
402,000000	85,202459
401,000000	85,187086
400,000000	85,178939
399,000000	85,194644
398,000000	85,195908
397,000000	85,181626
396,000000	85,182497
395,000000	85,169670
394,000000	85,164799
393,000000	85,168993
392,000000	85,150286
391,000000	85,151328
390,000000	85,154368
389,000000	85,129720
388,000000	85,133432
387,000000	85,139231
386,000000	85,141244
385,000000	85,106063
384,000000	85,083198
383,000000	85,074732
382,000000	85,069511
381,000000	85,067833
380,000000	85,060603
379,000000	85,140862
378,000000	85,216820
377,000000	85,247744
376,000000	85,165218
375,000000	85,155070
374,000000	85,159629
373,000000	85,156356
372,000000	85,174205
371,000000	85,114481
370,000000	85,075558
369,000000	85,078345
368,000000	85,094392
367,000000	85,127819
366,000000	85,114106
365,000000	85,133587
364,000000	85,131558
363,000000	85,102379
362,000000	85,031864
361,000000	85,041734
360,000000	85,027186
359,000000	85,056058
358,000000	85,068766
357,000000	85,047433
356,000000	85,003656
355,000000	85,020666
354,000000	85,022521
353,000000	85,022434
352,000000	85,028581
351,000000	85,021240
350,000000	85,014174
349,000000	85,006014
348,000000	85,060479
347,000000	85,016942
346,000000	84,981424
345,000000	85,021465
344,000000	84,987643
343,000000	84,982698
342,000000	85,026550
341,000000	84,984556
340,000000	84,971476
339,000000	84,948724
338,000000	84,934801
337,000000	84,911057
336,000000	84,901150
335,000000	84,849889
334,000000	84,871917
333,000000	84,806846
332,000000	84,851549
331,000000	84,924016
330,000000	84,906625
329,000000	84,907434
328,000000	84,917740
327,000000	84,868812
326,000000	84,807229
325,000000	84,797583
324,000000	84,832665
323,000000	84,880122
322,000000	84,738188
321,000000	84,817847
320,000000	84,803885
319,000000	84,628518
318,000000	84,633979
317,000000	84,609189
316,000000	84,598328
315,000000	84,594642
314,000000	84,576832
313,000000	84,567692
312,000000	84,570008
311,000000	84,547172
310,000000	84,517078
309,000000	84,501210
308,000000	84,512237
307,000000	84,491727
306,000000	84,483599
305,000000	84,532810
304,000000	84,487666
303,000000	84,446939
302,000000	84,474258
301,000000	84,431378
300,000000	84,451139
299,000000	84,424635
298,000000	84,410933
297,000000	84,378570
296,000000	84,376431
295,000000	84,374804
294,000000	84,357190
293,000000	84,321415
292,000000	84,309912
291,000000	84,318930
290,000000	84,297774
289,000000	84,296974
288,000000	84,279112
287,000000	84,291728
286,000000	84,259225
285,000000	84,230481
284,000000	84,206417
283,000000	84,193071
282,000000	84,179859
281,000000	84,137293
280,000000	84,138242
279,000000	84,126463
278,000000	84,142786
277,000000	84,153485
276,000000	84,123663
275,000000	84,084971
274,000000	84,057510
273,000000	84,039685
272,000000	84,035870
271,000000	83,981567
270,000000	83,956274
269,000000	83,949928
268,000000	83,952907
267,000000	83,933168
266,000000	83,939488
265,000000	83,935777
264,000000	83,908441
263,000000	83,880928
262,000000	83,840889
261,000000	83,799794
260,000000	83,777102
259,000000	83,779757
258,000000	83,757834
257,000000	83,716869
256,000000	83,699108
255,000000	83,654567
254,000000	83,619662
253,000000	83,610852
252,000000	83,579019
251,000000	83,558919
250,000000	83,535797
249,000000	83,498315
248,000000	83,453139
247,000000	83,402102
246,000000	83,366230
245,000000	83,329709
244,000000	83,296331
243,000000	83,265712
242,000000	83,214322
241,000000	83,181240
240,000000	83,139760
239,000000	83,099233
238,000000	83,056538
237,000000	83,016601
236,000000	82,964810
235,000000	82,908673
234,000000	82,857488
233,000000	82,820425
232,000000	82,793407
231,000000	82,731423
230,000000	82,686307
229,000000	82,618423
228,000000	82,565612
227,000000	82,499942
226,000000	82,468058
225,000000	82,416242
224,000000	82,341302
223,000000	82,297641
222,000000	82,245813
221,000000	82,173557
220,000000	82,109475
219,000000	82,055363
218,000000	82,008691
217,000000	81,946182
216,000000	81,904446
215,000000	81,838444
214,000000	81,759753
213,000000	81,697459
212,000000	81,632437
211,000000	81,593411
210,000000	81,539363
209,000000	81,459255
208,000000	81,393060
207,000000	81,329076
206,000000	81,257090
205,000000	81,184424
204,000000	81,095334
203,000000	81,010454
202,000000	80,914394
201,000000	80,830545
200,000000	80,754196
