PE UV       SUBTECH     SPECTRUM    ASCII       PEDS        4.00        
   -1
Vidro - V.Sample.asc
22/01/20
10:20:07.00
22/01/20
10:20:07.00
Administrator

200,000000
1
Lambda 1050
1050L1808311
PerkinElmer UV WinLab 6.4.0.973 / 2.02.11 Lambda 900 UV/VIS/NIR, May 23 2018 11:23:04

0
0
3350/servo 1800,8/servo 860,8/2
0
0
UV/VIS
1
1
1
CommonBeamDepol,RBeamAtt,SBeamAtt,uv/vis/nir detector, TDS WB InGaAs Detector
0
0
0
0
Program
 
0
3350/0,2 1800,8/0,2 860,8/0,2
0
0
0
 
 
 
0
 
860,8
319,2
1800,8 860,8
Front
100
on
S:100 R:100
 
0
0
0
 
0
 
 
 
0
 
 
0
0
0
0
0
 
 
 
 
0
0


0
0
#HDR
-1
-1
#GR
nm
%T
1.0
0.0
600,000000
-1,000000
401
8
88,611913
-0,010659
#DATA
600,000000	88,395838
599,000000	88,357591
598,000000	88,342669
597,000000	88,312754
596,000000	88,328090
595,000000	88,349820
594,000000	88,357285
593,000000	88,375586
592,000000	88,383140
591,000000	88,404526
590,000000	88,408154
589,000000	88,427124
588,000000	88,419420
587,000000	88,449115
586,000000	88,468865
585,000000	88,471977
584,000000	88,475691
583,000000	88,478178
582,000000	88,495912
581,000000	88,504814
580,000000	88,515152
579,000000	88,514956
578,000000	88,521098
577,000000	88,535972
576,000000	88,545469
575,000000	88,549740
574,000000	88,546581
573,000000	88,570842
572,000000	88,574884
571,000000	88,569679
570,000000	88,564384
569,000000	88,572508
568,000000	88,562605
567,000000	88,575716
566,000000	88,598400
565,000000	88,595405
564,000000	88,600758
563,000000	88,611913
562,000000	88,579156
561,000000	88,583246
560,000000	88,569254
559,000000	88,568787
558,000000	88,564672
557,000000	88,563612
556,000000	88,555923
555,000000	88,544408
554,000000	88,522899
553,000000	88,510786
552,000000	88,505111
551,000000	88,493751
550,000000	88,496818
549,000000	88,481716
548,000000	88,463131
547,000000	88,458942
546,000000	88,455551
545,000000	88,445022
544,000000	88,435425
543,000000	88,423694
542,000000	88,424503
541,000000	88,421034
540,000000	88,394853
539,000000	88,383810
538,000000	88,384966
537,000000	88,377965
536,000000	88,371862
535,000000	88,367311
534,000000	88,357952
533,000000	88,340390
532,000000	88,335717
531,000000	88,342366
530,000000	88,329554
529,000000	88,314955
528,000000	88,316329
527,000000	88,308272
526,000000	88,290240
525,000000	88,269949
524,000000	88,265666
523,000000	88,256244
522,000000	88,241806
521,000000	88,231358
520,000000	88,235052
519,000000	88,227420
518,000000	88,219981
517,000000	88,223991
516,000000	88,228945
515,000000	88,215877
514,000000	88,223517
513,000000	88,223804
512,000000	88,205577
511,000000	88,201987
510,000000	88,209281
509,000000	88,199933
508,000000	88,193226
507,000000	88,182369
506,000000	88,168952
505,000000	88,160554
504,000000	88,150864
503,000000	88,143063
502,000000	88,127033
501,000000	88,117735
500,000000	88,100440
499,000000	88,087489
498,000000	88,074738
497,000000	88,065027
496,000000	88,063945
495,000000	88,076779
494,000000	88,076963
493,000000	88,067481
492,000000	88,059580
491,000000	88,051404
490,000000	88,038054
489,000000	88,017580
488,000000	88,007470
487,000000	87,996863
486,000000	87,993992
485,000000	87,997493
484,000000	88,015729
483,000000	88,010430
482,000000	87,998570
481,000000	87,992096
480,000000	87,979607
479,000000	87,970833
478,000000	87,967356
477,000000	87,972155
476,000000	87,967515
475,000000	87,960196
474,000000	87,945695
473,000000	87,930445
472,000000	87,923188
471,000000	87,910150
470,000000	87,899583
469,000000	87,910121
468,000000	87,919236
467,000000	87,903681
466,000000	87,892387
465,000000	87,891176
464,000000	87,882372
463,000000	87,850731
462,000000	87,834065
461,000000	87,826539
460,000000	87,799610
459,000000	87,769340
458,000000	87,748565
457,000000	87,740205
456,000000	87,732127
455,000000	87,716351
454,000000	87,695833
453,000000	87,670663
452,000000	87,637328
451,000000	87,610786
450,000000	87,598282
449,000000	87,585614
448,000000	87,562396
447,000000	87,549623
446,000000	87,533889
445,000000	87,497015
444,000000	87,457850
443,000000	87,451246
442,000000	87,451348
441,000000	87,419343
440,000000	87,399127
439,000000	87,409297
438,000000	87,418811
437,000000	87,423776
436,000000	87,421953
435,000000	87,421687
434,000000	87,426223
433,000000	87,422357
432,000000	87,419527
431,000000	87,400402
430,000000	87,386847
429,000000	87,394258
428,000000	87,403175
427,000000	87,411494
426,000000	87,414479
425,000000	87,410586
424,000000	87,406621
423,000000	87,415619
422,000000	87,417372
421,000000	87,397619
420,000000	87,384566
419,000000	87,382599
418,000000	87,372975
417,000000	87,391379
416,000000	87,391474
415,000000	87,400152
414,000000	87,391400
413,000000	87,392667
412,000000	87,422049
411,000000	87,432473
410,000000	87,442094
409,000000	87,445539
408,000000	87,466534
407,000000	87,475395
406,000000	87,494331
405,000000	87,493595
404,000000	87,489693
403,000000	87,475676
402,000000	87,469236
401,000000	87,462528
400,000000	87,438352
399,000000	87,402003
398,000000	87,385018
397,000000	87,331166
396,000000	87,275900
395,000000	87,225950
394,000000	87,180193
393,000000	87,102050
392,000000	87,003717
391,000000	86,912928
390,000000	86,799654
389,000000	86,656349
388,000000	86,522866
387,000000	86,383333
386,000000	86,222769
385,000000	86,058867
384,000000	85,885547
383,000000	85,748858
382,000000	85,637690
381,000000	85,547382
380,000000	85,505288
379,000000	85,499927
378,000000	85,564613
377,000000	85,694519
376,000000	85,789025
375,000000	85,895914
374,000000	86,089748
373,000000	86,151614
372,000000	86,221016
371,000000	86,194762
370,000000	86,189348
369,000000	86,137359
368,000000	86,126590
367,000000	86,099913
366,000000	86,009791
365,000000	85,917260
364,000000	85,745088
363,000000	85,639192
362,000000	85,431477
361,000000	85,275616
360,000000	85,041201
359,000000	84,798283
358,000000	84,544984
357,000000	84,273299
356,000000	83,964357
355,000000	83,604062
354,000000	83,267654
353,000000	82,885168
352,000000	82,461005
351,000000	81,962461
350,000000	81,415756
349,000000	80,874618
348,000000	80,236946
347,000000	79,530361
346,000000	78,797568
345,000000	78,034844
344,000000	77,186217
343,000000	76,276692
342,000000	75,344430
341,000000	74,129756
340,000000	73,014165
339,000000	71,701257
338,000000	70,316725
337,000000	68,923985
336,000000	67,331842
335,000000	65,604852
334,000000	63,907063
333,000000	61,950691
332,000000	60,031317
331,000000	58,028375
330,000000	55,844946
329,000000	53,524619
328,000000	51,091482
327,000000	48,594106
326,000000	46,037207
325,000000	43,399273
324,000000	40,792972
323,000000	38,046314
322,000000	35,292186
321,000000	32,582738
320,000000	29,877380
319,000000	27,028859
318,000000	24,392252
317,000000	21,820614
316,000000	19,348643
315,000000	17,001366
314,000000	14,790953
313,000000	12,714404
312,000000	10,829095
311,000000	9,114267
310,000000	7,562414
309,000000	6,194765
308,000000	5,003669
307,000000	3,972619
306,000000	3,106946
305,000000	2,386333
304,000000	1,805061
303,000000	1,341066
302,000000	0,974529
301,000000	0,694236
300,000000	0,483403
299,000000	0,329205
298,000000	0,218768
297,000000	0,138404
296,000000	0,085813
295,000000	0,053285
294,000000	0,026197
293,000000	0,009568
292,000000	0,003410
291,000000	-0,002100
290,000000	-0,005254
289,000000	-0,007755
288,000000	-0,007759
287,000000	-0,010659
286,000000	-0,006449
285,000000	-0,008425
284,000000	-0,006847
283,000000	-0,007771
282,000000	-0,006984
281,000000	-0,010146
280,000000	-0,008699
279,000000	-0,008173
278,000000	-0,007252
277,000000	-0,007914
276,000000	-0,006859
275,000000	-0,005803
274,000000	-0,006067
273,000000	-0,010157
272,000000	-0,007388
271,000000	-0,007124
270,000000	-0,005805
269,000000	-0,005674
268,000000	-0,006335
267,000000	-0,005808
266,000000	-0,005151
265,000000	-0,008060
264,000000	-0,005154
263,000000	-0,002115
262,000000	-0,003966
261,000000	-0,002380
260,000000	-0,002249
259,000000	-0,000926
258,000000	-0,003310
257,000000	-0,002648
256,000000	-0,004107
255,000000	-0,006229
254,000000	-0,004905
253,000000	-0,002653
252,000000	-0,004645
251,000000	-0,005710
250,000000	-0,007176
249,000000	-0,006250
248,000000	-0,004923
247,000000	-0,004793
246,000000	-0,005598
245,000000	-0,004803
244,000000	-0,005076
243,000000	-0,005083
242,000000	-0,004287
241,000000	-0,006173
240,000000	-0,005377
239,000000	-0,002559
238,000000	-0,000270
237,000000	-0,002433
236,000000	0,000135
235,000000	0,002439
234,000000	0,000407
233,000000	0,000815
232,000000	0,004075
231,000000	0,007063
230,000000	0,006925
229,000000	0,002442
228,000000	0,002168
227,000000	0,001353
226,000000	0,001081
225,000000	0,002562
224,000000	0,004708
223,000000	0,003220
222,000000	0,003882
221,000000	0,004538
220,000000	0,004791
219,000000	0,003053
218,000000	0,004105
217,000000	0,005811
216,000000	0,007641
215,000000	0,008411
214,000000	0,009571
213,000000	0,008897
212,000000	0,008881
211,000000	0,011605
210,000000	0,013802
209,000000	0,012483
208,000000	0,012597
207,000000	0,013624
206,000000	0,014779
205,000000	0,015671
204,000000	0,016690
203,000000	0,016678
202,000000	0,017834
201,000000	0,021187
200,000000	0,024408
