PE UV       SUBTECH     SPECTRUM    ASCII       PEDS        4.00        
   -1
etime.Sample.asc
22/05/06
16:11:50.00
22/05/06
16:11:50.00
Administrator

2400,000000
1
Lambda 1050
1050L1808311
PerkinElmer UV WinLab 6.4.0.973 / 2.02.11 Lambda 900 UV/VIS/NIR, May 23 2018 11:23:04

0
0
3350/servo 860,8/2
0
0
UV/VIS
5
1
1
CommonBeamDepol,RBeamAtt,SBeamAtt,60mm sphere
0
0
0
300
Program
 
0
3350/0,2 860,8/0,2
0
0
0
 
 
 
0
 
860,8
319,2
860,8
Front
100
on
S:100 R:100
 
0
0
0
 
0
 
 
 
0
 
 
0
0
0
0
0
 
 
 
 
0
0


0
0
#HDR
-1
-1
#GR
s
A
1.0
0.0
0,000000
5,000000
481
8
0,004056
0,000642
#DATA
0,000000	0,002775
5,000000	0,003426
10,000000	0,003304
15,000000	0,003227
20,000000	0,003753
25,000000	0,002550
30,000000	0,002495
35,000000	0,001792
40,000000	0,002553
45,000000	0,002787
50,000000	0,002378
55,000000	0,002766
60,000000	0,003326
65,000000	0,003306
70,000000	0,003005
75,000000	0,002704
80,000000	0,003721
85,000000	0,003185
90,000000	0,003110
95,000000	0,003245
100,000000	0,003306
105,000000	0,003090
110,000000	0,002851
115,000000	0,002395
120,000000	0,002852
125,000000	0,002409
130,000000	0,002420
135,000000	0,003828
140,000000	0,002948
145,000000	0,003008
150,000000	0,002502
155,000000	0,002460
160,000000	0,001956
165,000000	0,002567
170,000000	0,002083
175,000000	0,002777
180,000000	0,003114
185,000000	0,003130
190,000000	0,002273
195,000000	0,002344
200,000000	0,002940
205,000000	0,002892
210,000000	0,002558
215,000000	0,002643
220,000000	0,003458
225,000000	0,002914
230,000000	0,002856
235,000000	0,003077
240,000000	0,002735
245,000000	0,002314
250,000000	0,002604
255,000000	0,002901
260,000000	0,002657
265,000000	0,002412
270,000000	0,002507
275,000000	0,002684
280,000000	0,002720
285,000000	0,002961
290,000000	0,002811
295,000000	0,002444
300,000000	0,002748
305,000000	0,002774
310,000000	0,002645
315,000000	0,002452
320,000000	0,002441
325,000000	0,003024
330,000000	0,001808
335,000000	0,001804
340,000000	0,002564
345,000000	0,003128
350,000000	0,002485
355,000000	0,002511
360,000000	0,001984
365,000000	0,001947
370,000000	0,002073
375,000000	0,003036
380,000000	0,002885
385,000000	0,001954
390,000000	0,002586
395,000000	0,002263
400,000000	0,002578
405,000000	0,002286
410,000000	0,002744
415,000000	0,002561
420,000000	0,002745
425,000000	0,002440
430,000000	0,002260
435,000000	0,002480
440,000000	0,002368
445,000000	0,003146
450,000000	0,002299
455,000000	0,001982
460,000000	0,002299
465,000000	0,001471
470,000000	0,002727
475,000000	0,002864
480,000000	0,002059
485,000000	0,001850
490,000000	0,002549
495,000000	0,002337
500,000000	0,002618
505,000000	0,002749
510,000000	0,003060
515,000000	0,001806
520,000000	0,002877
525,000000	0,002378
530,000000	0,002450
535,000000	0,002746
540,000000	0,001867
545,000000	0,002486
550,000000	0,002109
555,000000	0,003051
560,000000	0,002399
565,000000	0,003057
570,000000	0,002488
575,000000	0,002630
580,000000	0,002080
585,000000	0,002723
590,000000	0,003025
595,000000	0,002280
600,000000	0,002288
605,000000	0,002628
610,000000	0,002252
615,000000	0,002225
620,000000	0,002736
625,000000	0,002835
630,000000	0,002089
635,000000	0,002372
640,000000	0,002510
645,000000	0,002316
650,000000	0,003335
655,000000	0,002217
660,000000	0,002775
665,000000	0,002583
670,000000	0,002389
675,000000	0,002220
680,000000	0,002405
685,000000	0,002690
690,000000	0,002570
695,000000	0,002625
700,000000	0,002109
705,000000	0,002581
710,000000	0,002121
715,000000	0,002808
720,000000	0,001657
725,000000	0,002794
730,000000	0,001729
735,000000	0,002467
740,000000	0,002851
745,000000	0,001839
750,000000	0,002619
755,000000	0,002293
760,000000	0,002643
765,000000	0,002156
770,000000	0,002300
775,000000	0,001704
780,000000	0,002876
785,000000	0,002365
790,000000	0,002483
795,000000	0,002451
800,000000	0,002830
805,000000	0,002475
810,000000	0,002224
815,000000	0,002248
820,000000	0,002294
825,000000	0,002505
830,000000	0,002784
835,000000	0,002915
840,000000	0,002406
845,000000	0,003318
850,000000	0,002368
855,000000	0,002823
860,000000	0,002482
865,000000	0,002499
870,000000	0,002495
875,000000	0,001845
880,000000	0,001972
885,000000	0,002605
890,000000	0,001849
895,000000	0,002691
900,000000	0,002447
905,000000	0,002953
910,000000	0,002561
915,000000	0,002806
920,000000	0,001776
925,000000	0,002764
930,000000	0,001795
935,000000	0,002513
940,000000	0,002522
945,000000	0,002359
950,000000	0,002300
955,000000	0,003076
960,000000	0,002519
965,000000	0,003007
970,000000	0,002898
975,000000	0,002118
980,000000	0,002600
985,000000	0,003341
990,000000	0,002515
995,000000	0,002400
1000,000000	0,002059
1005,000000	0,002984
1010,000000	0,001801
1015,000000	0,001949
1020,000000	0,002945
1025,000000	0,002607
1030,000000	0,002891
1035,000000	0,001844
1040,000000	0,002526
1045,000000	0,002874
1050,000000	0,003198
1055,000000	0,001777
1060,000000	0,002094
1065,000000	0,002035
1070,000000	0,002186
1075,000000	0,003200
1080,000000	0,002615
1085,000000	0,002575
1090,000000	0,002308
1095,000000	0,002614
1100,000000	0,002453
1105,000000	0,002702
1110,000000	0,002830
1115,000000	0,002283
1120,000000	0,001978
1125,000000	0,001930
1130,000000	0,002822
1135,000000	0,002511
1140,000000	0,002645
1145,000000	0,002353
1150,000000	0,002336
1155,000000	0,002771
1160,000000	0,002685
1165,000000	0,001939
1170,000000	0,002815
1175,000000	0,002642
1180,000000	0,002483
1185,000000	0,002189
1190,000000	0,002528
1195,000000	0,002667
1200,000000	0,001911
1205,000000	0,002540
1210,000000	0,002388
1215,000000	0,002368
1220,000000	0,001874
1225,000000	0,002272
1230,000000	0,001914
1235,000000	0,002776
1240,000000	0,002232
1245,000000	0,002422
1250,000000	0,002124
1255,000000	0,001943
1260,000000	0,002822
1265,000000	0,002217
1270,000000	0,002269
1275,000000	0,002148
1280,000000	0,002893
1285,000000	0,002519
1290,000000	0,002664
1295,000000	0,002824
1300,000000	0,001962
1305,000000	0,002658
1310,000000	0,002012
1315,000000	0,002857
1320,000000	0,002122
1325,000000	0,002512
1330,000000	0,002221
1335,000000	0,001847
1340,000000	0,002381
1345,000000	0,001896
1350,000000	0,002718
1355,000000	0,002152
1360,000000	0,001738
1365,000000	0,002658
1370,000000	0,001793
1375,000000	0,002174
1380,000000	0,001944
1385,000000	0,002374
1390,000000	0,002060
1395,000000	0,002504
1400,000000	0,002349
1405,000000	0,002239
1410,000000	0,002371
1415,000000	0,002088
1420,000000	0,002293
1425,000000	0,002223
1430,000000	0,002424
1435,000000	0,002403
1440,000000	0,001848
1445,000000	0,002337
1450,000000	0,001815
1455,000000	0,002562
1460,000000	0,001644
1465,000000	0,002287
1470,000000	0,002678
1475,000000	0,003476
1480,000000	0,002997
1485,000000	0,001923
1490,000000	0,002353
1495,000000	0,001893
1500,000000	0,001996
1505,000000	0,002519
1510,000000	0,002157
1515,000000	0,002420
1520,000000	0,001683
1525,000000	0,002710
1530,000000	0,001813
1535,000000	0,001574
1540,000000	0,002223
1545,000000	0,002547
1550,000000	0,002110
1555,000000	0,002870
1560,000000	0,002500
1565,000000	0,002523
1570,000000	0,002373
1575,000000	0,001803
1580,000000	0,002046
1585,000000	0,002131
1590,000000	0,002313
1595,000000	0,002036
1600,000000	0,002654
1605,000000	0,001992
1610,000000	0,002307
1615,000000	0,002470
1620,000000	0,002447
1625,000000	0,002208
1630,000000	0,002223
1635,000000	0,002064
1640,000000	0,002670
1645,000000	0,002621
1650,000000	0,001917
1655,000000	0,002742
1660,000000	0,002194
1665,000000	0,002743
1670,000000	0,002484
1675,000000	0,002739
1680,000000	0,002052
1685,000000	0,002541
1690,000000	0,001991
1695,000000	0,002808
1700,000000	0,002411
1705,000000	0,002437
1710,000000	0,002983
1715,000000	0,002343
1720,000000	0,001836
1725,000000	0,002759
1730,000000	0,001638
1735,000000	0,002225
1740,000000	0,001630
1745,000000	0,002066
1750,000000	0,002175
1755,000000	0,002858
1760,000000	0,002311
1765,000000	0,001947
1770,000000	0,002425
1775,000000	0,002386
1780,000000	0,002454
1785,000000	0,002430
1790,000000	0,002857
1795,000000	0,001751
1800,000000	0,002034
1805,000000	0,002410
1810,000000	0,001860
1815,000000	0,002389
1820,000000	0,002182
1825,000000	0,002271
1830,000000	0,002754
1835,000000	0,003359
1840,000000	0,002133
1845,000000	0,002281
1850,000000	0,001337
1855,000000	0,002657
1860,000000	0,002180
1865,000000	0,002297
1870,000000	0,001746
1875,000000	0,001765
1880,000000	0,002094
1885,000000	0,002411
1890,000000	0,002511
1895,000000	0,003166
1900,000000	0,002648
1905,000000	0,002247
1910,000000	0,002268
1915,000000	0,002880
1920,000000	0,002086
1925,000000	0,002580
1930,000000	0,002419
1935,000000	0,003432
1940,000000	0,003367
1945,000000	0,002770
1950,000000	0,002960
1955,000000	0,002911
1960,000000	0,003452
1965,000000	0,003162
1970,000000	0,003301
1975,000000	0,002412
1980,000000	0,002923
1985,000000	0,003408
1990,000000	0,001849
1995,000000	0,002466
2000,000000	0,003147
2005,000000	0,002437
2010,000000	0,002756
2015,000000	0,002667
2020,000000	0,002029
2025,000000	0,002481
2030,000000	0,002489
2035,000000	0,001898
2040,000000	0,002026
2045,000000	0,002323
2050,000000	0,001987
2055,000000	0,002065
2060,000000	0,002743
2065,000000	0,002557
2070,000000	0,002334
2075,000000	0,002322
2080,000000	0,003008
2085,000000	0,002050
2090,000000	0,002543
2095,000000	0,003017
2100,000000	0,002173
2105,000000	0,002711
2110,000000	0,002531
2115,000000	0,003152
2120,000000	0,002775
2125,000000	0,002282
2130,000000	0,002280
2135,000000	0,002399
2140,000000	0,002197
2145,000000	0,002171
2150,000000	0,002287
2155,000000	0,002483
2160,000000	0,001832
2165,000000	0,002257
2170,000000	0,001855
2175,000000	0,002983
2180,000000	0,001968
2185,000000	0,000642
2190,000000	0,002046
2195,000000	0,002144
2200,000000	0,001914
2205,000000	0,002402
2210,000000	0,002488
2215,000000	0,002169
2220,000000	0,002247
2225,000000	0,002577
2230,000000	0,002321
2235,000000	0,002739
2240,000000	0,002954
2245,000000	0,002491
2250,000000	0,002206
2255,000000	0,002995
2260,000000	0,002014
2265,000000	0,002017
2270,000000	0,001640
2275,000000	0,002066
2280,000000	0,001510
2285,000000	0,002561
2290,000000	0,002910
2295,000000	0,001933
2300,000000	0,002419
2305,000000	0,001736
2310,000000	0,001507
2315,000000	0,001019
2320,000000	0,002660
2325,000000	0,003046
2330,000000	0,002990
2335,000000	0,003549
2340,000000	0,003239
2345,000000	0,003648
2350,000000	0,002947
2355,000000	0,003353
2360,000000	0,003481
2365,000000	0,004056
2370,000000	0,003159
2375,000000	0,003182
2380,000000	0,001701
2385,000000	0,003515
2390,000000	0,003281
2395,000000	0,003709
2400,000000	0,002885
